-40.094
-35.512
-31.159
-26.972
-23.117
-19.727
-17.172
-15.341
-12.92
-9.696
-6.591
-5.385
-9.438
-18.44
-28.471
-35.448
-34.232
-24.783
-12.185
-0.325
6.616
7.729
6.392
4.39
3.12
3.392
3.933
4.211
4.398
4.39
4.477
4.934
5.602
6.292
6.944
7.445
7.742
7.907
7.969
7.925
7.824
7.703
7.576
7.478
7.423
7.394
7.383
7.379
7.372
7.369
7.377
7.399
7.44
7.5
7.58
7.681
7.801
7.94
8.095
8.263
8.443
8.636
8.84
9.059
9.292
9.538
9.796
10.061
10.334
10.611
10.892
11.174
11.454
11.731
12.002
12.266
12.523
12.77
13.007
13.231
13.441
13.637
13.817
13.98
14.123
14.247
14.349
14.428
14.484
14.515
14.522
14.502
14.457
14.385
14.287
14.161
14.008
13.828
13.62
13.385
13.121
12.829
12.509
12.161
11.785
11.381
10.948
10.487
9.997
9.478
8.93
8.354
7.749
7.115
6.453
5.762
5.045
4.299
3.527
2.728
1.903
1.051
0.173
-0.73
-1.66
-2.615
-3.596
-4.602
-5.635
-6.692
-7.775
-8.884
-10.017
-11.174
-12.354
-13.558
-14.782
-16.028
-17.292
-18.573
-19.871
-21.182
-22.506
-23.84
-25.183
-26.532
-27.885
-29.239
-30.591
-31.938
-33.278
-34.606
-35.92
-37.215
-38.487
-39.732
-40.947
-42.127
-43.265
-44.356
-45.392
-46.37
-47.284
-48.129
-48.902
-49.596
-50.206
-50.729
-51.162
-51.499
-51.735
-51.86
-51.869
-51.755
-51.517
-51.154
-50.663
-50.038
-49.275
-48.365
-47.305
-46.092
-44.722
-43.189
-41.489
-39.62
-37.587
-35.408
-33.091
-30.645
-28.074
-25.372
-22.545
-19.61
-16.591
-13.523
-10.438
-7.346
-4.255
-1.172
1.893
4.915
7.895
10.88
13.908
16.98
19.977
22.679
24.98
26.887
28.468
29.879
31.134
32.178
33.465
35.642
38.982
43.83
49.492
54.712
59.775
64.751
70.378
77.959
85.965
92.343
94.278
88.334
74.432
55.225
36.129
23.596
21.288
28.454
40.092
50.627
56.252
56.756
54.92
52.642
50.918
49.448
46.99
43.62
39.749
35.589
31.535
27.579
23.613
19.84
16.302
12.819
9.3
5.674
1.953
-1.703
-5.197
-8.509
-11.603
-14.442
-16.991
-19.208
-21.091
-22.654
-23.903
-24.84
-25.454
-25.742
-25.736
-25.484
-25.057
-24.542
-24.013
-23.557
-23.281
-23.269
-23.595
-24.322
-25.462
-27.063
-29.202
-31.906
-35.164
-38.861
-42.748
-46.548
-50.007
-52.812
-54.615
-55.125
-54.17
-51.895
-48.769
-45.344
-42.141
-39.603
-38.167
-38.187
-39.68
-42.036
-44.078
-44.329
-41.188
-33.149
-18.606
4.163
35.786
74.994
119.732
167.501
217.392
271.857
331.961
394.769
452.755
492.308
501.67
477.919
424.712
352.835
274.359
194.013
115.057
40.138
-29.42
-87.46
-130.638
-161.009
-180.034
-191.722
-198.231
-197.098
-187.73
-170.724
-147.498
-121.462
-95.27
-70.365
-48.165
-30.051
-17.026
-8.776
-4.595
-4.558
-7.827
-15.03
-26.742
-39.246
-50.141
-56.866
-56.401
-51.498
-44.711
-37.861
-34.044
-32.513
-32.069
-32.695
-33.505
-34.719
-36.854
-39.611
-42.429
-45.466
-49.074
-52.271
-54.788
-55.159
-50.754
-43.326
-35.295
-29.237
-29.857
-36.257
-44.103
-50.499
-50.844
-44.323
-35.343
-26.436
-20.217
-18.378
-18.383
-18.703
-18.85
-17.844
-16.461
-15.363
-14.301
-13.39
-12.562
-11.624
-10.66
-9.744
-8.841
-7.948
-7.087
-6.24
-5.39
-4.54
-3.671
-2.76
-1.812
-0.822
0.217
1.302
2.435
3.622
4.866
6.173
7.554
9.021
10.595
12.296
14.138
16.134
18.292
20.609
23.088
25.728
28.526
31.484
34.602
37.876
41.31
44.902
48.642
52.516
56.498
60.558
64.682
68.867
73.112
77.429
81.829
86.331
90.961
95.737
100.667
105.756
110.999
116.393
121.953
127.7
133.659
139.865
146.324
153.036
160.001
167.201
174.617
182.216
189.951
197.79
205.72
213.743
221.857
230.052
238.295
246.544
254.755
262.876
270.866
278.683
286.271
293.587
300.59
307.25
313.54
319.415
324.799
329.605
333.76
337.205
339.909
341.85
343.004
343.361
342.92
341.695
339.719
337.023
333.632
329.573
324.88
319.608
313.838
307.656
301.134
294.327
287.267
279.984
272.507
264.856
257.036
249.041
240.85
232.45
223.843
215.029
206.007
196.771
187.305
177.601
167.669
157.538
147.252
136.866
126.443
116.047
105.753
95.641
85.799
76.299
67.204
58.567
50.432
42.838
35.819
29.396
23.575
18.343
13.676
9.532
5.863
2.618
-0.254
-2.807
-5.096
-7.171
-9.074
-10.837
-12.485
-14.038
-15.513
-16.919
-18.263
-19.538
-20.732
-21.828
-22.799
-23.626
-24.295
-24.796
-25.116
-25.251
-25.199
-24.965
-24.562
-24.002
-23.299
-22.466
-21.519
-20.478
-19.365
-18.205
-17.022
-15.839
-14.674
-13.541
-12.454
-11.424
-10.461
-9.568
-8.749
-8.005
-7.34
-6.756
-6.258
-5.844
-5.516
-5.271
-5.108
-5.026
-5.022
-5.094
-5.24
-5.458
-5.746
-6.101
-6.52
-7.002
-7.541
-8.133
-8.772
-9.452
-10.17
-10.917
-11.689
-12.48
-13.285
-14.098
-14.916
-15.735
-16.549
-17.355
-18.149
-18.929
-19.69
-20.431
-21.147
-21.838
-22.5
-23.133
-23.734
-24.304
-24.84
-25.343
-25.812
-26.247
-26.648
-27.015
-27.349
-27.652
-27.924
-28.168
-28.386
-28.579
-28.752
-28.905
-29.042
-29.165
-29.277
-29.38
-29.476
-29.568
-29.658
-29.747
-29.838
-29.932
-30.031
-30.137
-30.25
-30.371
-30.502
-30.642
-30.793
-30.955
-31.127
-31.312
-31.507
-31.714
-31.933
-32.163
-32.404
-32.656
-32.918
-33.19
-33.47
-33.759
-34.054
-34.356
-34.663
-34.974
-35.288
-35.604
-35.923
-36.241
-36.559
-36.876
-37.191
-37.503
-37.812
-38.116
-38.415
-38.71
-39
-39.284
-39.563
-39.837
-40.105
-40.367
-40.624
-40.874
-41.118
-41.357
-41.589
-41.814
-42.033
-42.246
-42.452
-42.651
-42.844
-43.029
-43.207
-43.379
-43.543
-43.699
-43.849
-43.992
-44.129
-44.26
-44.385
-44.505
-44.621
-44.733
-44.841
-44.946
-45.048
-45.148
-45.247
-45.344
-45.441
-45.538
-45.636
-45.736
-45.837
-45.941
-46.049
-46.16
-46.276
-46.398
-46.526
-46.662
-46.806
-46.959
-47.123
-47.297
-47.483
-47.681
-47.891
-48.114
-48.35
-48.599
-48.86
-49.134
-49.419
-49.716
-50.024
-50.342
-50.669
-51.005
-51.347
-51.697
-52.052
-52.411
-52.774
-53.14
-53.507
-53.875
-54.243
-54.61
-54.975
-55.336
-55.693
-56.045
-56.39
-56.728
-57.056
-57.374
-57.681
-57.976
-58.259
-58.528
-58.784
-59.025
-59.252
-59.464
-59.662
-59.846
-60.016
-60.173
-60.317
-60.45
-60.572
-60.683
-60.786
-60.879
-60.965
-61.044
-61.116
-61.183
-61.244
-61.302
-61.355
-61.406
-61.455
-61.503
-61.551
-61.6
-61.651
-61.705
-61.764
-61.827
-61.896
-61.972
-62.056
-62.149
-62.251
-62.363
-62.486
-62.618
-62.762
-62.916
-63.081
-63.255
-63.44
-63.634
-63.837
-64.05
-64.271
-64.501
-64.74
-64.987
-65.243
-65.506
-65.777
-66.056
-66.341
-66.632
-66.93
-67.232
-67.539
-67.851
-68.165
-68.481
-68.799
-69.117
-69.434
-69.748
-70.061
-70.369
-70.674
-70.974
-71.27
-71.562
-71.849
-72.133
-72.414
-72.691
-72.965
-73.236
-73.505
-73.772
-74.036
-74.299
-74.561
-74.822
-75.083
-75.345
-75.608
-75.873
-76.142
-76.414
-76.691
-76.974
-77.263
-77.561
-77.869
-78.189
-78.522
-78.87
-79.235
-79.619
-80.021
-80.442
-80.884
-81.344
-81.824
-82.322
-82.838
-83.371
-83.921
-84.488
-85.071
-85.671
-86.286
-86.915
-87.557
-88.209
-88.871
-89.538
-90.208
-90.875
-91.539
-92.194
-92.84
-93.474
-94.093
-94.695
-95.275
-95.83
-96.357
-96.851
-97.305
-97.713
-98.07
-98.373
-98.623
-98.821
-98.963
-99.046
-99.063
-99.007
-98.869
-98.634
-98.283
-97.793
-97.149
-96.339
-95.363
-94.222
-92.918
-91.453
-89.824
-88.032
-86.087
-83.996
-81.77
-79.423
-76.977
-74.464
-71.937
-69.451
-67.052
-64.769
-62.616
-60.594
-58.693
-56.89
-55.163
-53.484
-51.824
-50.155
-48.437
-46.612
-44.619
-42.398
-39.871
-36.968
-33.607
-29.672
-25.134
-20.06
-14.546
-8.747
-2.741
3.543
10.097
16.76
23.485
30.347
37.474
45.187
53.568
62.182
70.642
78.717
86.047
92.262
96.937
99.27
98.727
95.597
90.323
83.407
75.577
67.385
59.373
52.543
47.766
45.175
44.641
45.742
47.759
50.283
53.025
55.383
56.79
57.059
56.187
54.477
52.484
50.483
48.591
47.009
45.885
45.269
45.156
45.369
45.607
45.713
45.603
45.205
44.494
43.429
41.951
40.058
37.739
34.918
31.584
27.791
23.645
19.418
15.426
11.942
9.347
8.117
8.484
10.492
14.041
18.497
23.044
27.043
29.652
30.64
30.904
31.252
32.016
32.21
30.044
25.903
23.756
31.896
58.131
104.301
166.674
235.768
303.53
369.388
434.603
499.495
559.198
600.425
611.24
587.989
534.728
463.089
384.004
301.479
217.4
133.718
55.937
-6.683
-48.288
-69.039
-75.334
-75.693
-75.311
-75.258
-73.329
-67.817
-59.309
-49.553
-40.634
-33.295
-27.051
-21.201
-15.135
-8.706
-1.984
4.896
11.585
17.616
22.556
26.072
28.173
29.216
29.505
29.345
29.036
28.763
28.67
28.841
29.129
29.2
28.818
27.825
26.167
23.955
21.321
18.391
15.382
12.548
10.075
8.106
6.71
5.863
5.539
5.711
6.328
7.338
8.686
10.311
12.162
14.187
16.327
18.522
20.71
22.836
24.86
26.747
28.476
30.04
31.435
32.664
33.735
34.653
35.427
36.072
36.599
37.027
37.374
37.661
37.913
38.151
38.392
38.649
38.934
39.254
39.615
40.024
40.482
40.994
41.564
42.2
42.908
43.696
44.569
45.535
46.598
47.764
49.042
50.436
51.954
53.601
55.383
57.307
59.38
61.609
63.998
66.552
69.271
72.158
75.216
78.446
81.85
85.426
89.175
93.098
97.196
101.469
105.92
110.547
115.349
120.326
125.474
130.794
136.287
141.951
147.784
153.766
159.87
166.076
172.361
178.706
185.107
191.521
197.899
204.271
210.65
217.051
223.513
229.95
236.246
242.421
248.49
254.34
259.924
265.125
269.781
274.083
278.244
282.257
286.161
290.074
294.026
298.228
302.926
307.873
312.815
317.687
322.333
326.639
330.547
333.765
335.988
337.303
337.786
337.439
336.349
334.477
331.76
328.281
324.119
319.192
313.435
306.793
299.188
290.652
281.252
271.037
260.088
248.507
236.398
223.86
210.983
197.84
184.505
171.055
157.565
144.129
130.847
117.836
105.232
93.141
81.643
70.785
60.585
51.052
42.186
33.985
26.442
19.544
13.267
7.593
2.499
-2.056
-6.128
-9.798
-13.176
-16.348
-19.379
-22.32
-25.195
-28.027
-30.835
-33.625
-36.395
-39.139
-41.852
-44.529
-47.172
-49.767
-52.293
-54.714
-56.974
-59.037
-60.877
-62.478
-63.835
-64.947
-65.814
-66.446
-66.866
-67.093
-67.146
-67.038
-66.781
-66.392
-65.893
-65.309
-64.669
-63.998
-63.311
-62.624
-61.949
-61.295
-60.67
-60.076
-59.51
-58.972
-58.462
-57.983
-57.536
-57.123
-56.743
-56.396
-56.079
-55.793
-55.538
-55.313
-55.117
-54.95
-54.812
-54.704
-54.626
-54.578
-54.561
-54.572
-54.61
-54.674
-54.762
-54.872
-55.003
-55.153
-55.32
-55.504
-55.704
-55.919
-56.149
-56.393
-56.651
-56.922
-57.207
-57.506
-57.817
-58.141
-58.478
-58.828
-59.19
-59.564
-59.949
-60.346
-60.752
-61.169
-61.596
-62.031
-62.476
-62.928
-63.388
-63.856
-64.331
-64.813
-65.301
-65.795
-66.294
-66.798
-67.306
-67.816
-68.328
-68.84
-69.351
-69.858
-70.36
-70.856
-71.343
-71.821
-72.287
-72.74
-73.178
-73.6
-74.004
-74.391
-74.757
-75.104
-75.429
-75.733
-76.015
-76.275
-76.511
-76.725
-76.914
-77.081
-77.223
-77.342
-77.437
-77.508
-77.556
-77.581
-77.584
-77.566
-77.527
-77.47
-77.396
-77.305
-77.201
-77.084
-76.958
-76.823
-76.681
-76.535
-76.387
-76.237
-76.089
-75.943
-75.8
-75.663
-75.533
-75.411
-75.298
-75.195
-75.102
-75.022
-74.954
-74.899
-74.857
-74.829
-74.816
-74.817
-74.833
-74.864
-74.909
-74.969
-75.044
-75.132
-75.233
-75.344
-75.466
-75.596
-75.732
-75.873
-76.017
-76.162
-76.307
-76.449
-76.588
-76.72
-76.845
-76.961
-77.064
-77.155
-77.231
-77.292
-77.336
-77.362
-77.37
-77.361
-77.334
-77.289
-77.227
-77.149
-77.053
-76.94
-76.809
-76.662
-76.496
-76.311
-76.11
-75.894
-75.665
-75.427
-75.183
-74.936
-74.692
-74.454
-74.227
-74.012
-73.812
-73.628
-73.464
-73.326
-73.221
-73.153
-73.124
-73.135
-73.188
-73.279
-73.405
-73.554
-73.713
-73.869
-74.02
-74.164
-74.307
-74.455
-74.612
-74.784
-74.977
-75.197
-75.452
-75.749
-76.089
-76.481
-76.94
-77.493
-78.176
-79.014
-80.015
-81.181
-82.499
-83.953
-85.522
-87.175
-88.872
-90.577
-92.258
-93.89
-95.457
-96.933
-98.282
-99.459
-100.405
-101.077
-101.451
-101.511
-101.255
-100.691
-99.835
-98.725
-97.414
-95.944
-94.351
-92.66
-90.887
-89.054
-87.194
-85.344
-83.548
-81.843
-80.25
-78.79
-77.478
-76.315
-75.297
-74.402
-73.591
-72.839
-72.129
-71.45
-70.803
-70.181
-69.577
-68.983
-68.393
-67.799
-67.199
-66.59
-65.966
-65.33
-64.69
-64.059
-63.458
-62.904
-62.404
-61.966
-61.591
-61.28
-61.034
-60.852
-60.728
-60.658
-60.639
-60.668
-60.745
-60.865
-61.023
-61.212
-61.422
-61.647
-61.878
-62.108
-62.33
-62.538
-62.727
-62.891
-63.026
-63.129
-63.194
-63.216
-63.19
-63.109
-62.969
-62.764
-62.49
-62.14
-61.712
-61.203
-60.609
-59.928
-59.16
-58.304
-57.359
-56.325
-55.204
-53.997
-52.705
-51.332
-49.882
-48.358
-46.766
-45.111
-43.401
-41.642
-39.842
-38.008
-36.15
-34.274
-32.389
-30.504
-28.626
-26.764
-24.927
-23.124
-21.363
-19.655
-18.01
-16.436
-14.944
-13.544
-12.246
-11.058
-9.988
-9.041
-8.224
-7.544
-7.006
-6.615
-6.374
-6.288
-6.361
-6.597
-6.998
-7.562
-8.288
-9.167
-10.196
-11.371
-12.691
-14.152
-15.755
-17.498
-19.388
-21.434
-23.637
-25.992
-28.488
-31.108
-33.84
-36.673
-39.591
-42.58
-45.623
-48.697
-51.779
-54.846
-57.856
-60.764
-63.511
-66.025
-68.252
-70.157
-71.711
-72.896
-73.697
-74.104
-74.12
-73.766
-73.057
-72.023
-70.703
-69.141
-67.415
-65.618
-63.85
-62.228
-60.867
-59.864
-59.312
-59.293
-59.852
-61.043
-62.933
-65.513
-68.728
-72.432
-76.34
-80.163
-83.65
-86.494
-88.324
-88.886
-88.055
-85.994
-83.268
-80.455
-78.011
-76.387
-75.974
-76.964
-79.276
-82.192
-84.264
-83.934
-79.594
-69.61
-52.561
-27.062
7.156
48.552
95.016
144.028
194.845
248.919
305.136
359.847
405.114
429.585
427.682
399.004
348.337
284.868
213.365
136.894
59.477
-14.394
-77.075
-122.489
-150.269
-165.069
-173.38
-179.766
-184.739
-185.163
-178.907
-166.305
-149.331
-131.098
-113.189
-95.785
-79.076
-63.47
-49.812
-38.766
-30.317
-24.174
-20.267
-18.525
-18.748
-20.305
-22.049
-23.179
-23.417
-22.699
-21.098
-18.719
-15.667
-12.328
-9.412
-7.373
-6.364
-6.377
-7.203
-8.628
-10.499
-12.56
-14.468
-15.985
-16.979
-17.398
-17.294
-16.716
-15.679
-14.233
-12.438
-10.35
-8.025
-5.52
-2.88
-0.162
2.564
5.246
7.834
10.286
12.579
14.696
16.627
18.375
19.948
21.351
22.59
23.678
24.628
25.459
26.193
26.852
27.464
28.049
28.628
29.217
29.827
30.466
31.142
31.857
32.616
33.421
34.28
35.196
36.177
37.23
38.359
39.572
40.874
42.27
43.767
45.373
47.096
48.944
50.923
53.041
55.308
57.728
60.308
63.052
65.964
69.047
72.306
75.743
79.361
83.162
87.146
91.315
95.672
100.217
104.948
109.864
114.966
120.253
125.728
131.39
137.233
143.248
149.423
155.747
162.202
168.77
175.421
182.133
188.88
195.642
202.406
209.151
215.855
222.492
229.033
235.455
241.747
247.897
253.895
259.739
265.432
270.993
276.452
281.831
287.135
292.361
297.49
302.513
307.421
312.203
316.849
321.337
325.633
329.708
333.529
337.042
340.184
342.864
344.971
346.419
347.145
347.098
346.249
344.561
341.996
338.534
334.158
328.857
322.634
315.484
307.414
298.469
288.713
278.245
267.188
255.645
243.704
231.457
218.981
206.362
193.694
181.054
168.525
156.2
144.167
132.524
121.354
110.706
100.607
91.063
82.058
73.587
65.644
58.211
51.274
44.815
38.804
33.219
28.026
23.166
18.583
14.219
10.02
5.959
2.017
-1.819
-5.548
-9.171
-12.686
-16.08
-19.347
-22.48
-25.47
-28.306
-30.971
-33.432
-35.663
-37.64
-39.347
-40.778
-41.934
-42.815
-43.432
-43.798
-43.932
-43.854
-43.584
-43.135
-42.526
-41.778
-40.912
-39.957
-38.938
-37.873
-36.78
-35.675
-34.569
-33.474
-32.398
-31.346
-30.32
-29.326
-28.367
-27.449
-26.577
-25.753
-24.979
-24.257
-23.587
-22.972
-22.414
-21.912
-21.469
-21.083
-20.757
-20.491
-20.286
-20.141
-20.054
-20.024
-20.049
-20.128
-20.257
-20.435
-20.659
-20.928
-21.238
-21.588
-21.977
-22.4
-22.858
-23.346
-23.863
-24.408
-24.977
-25.568
-26.18
-26.81
-27.455
-28.114
-28.784
-29.462
-30.146
-30.834
-31.524
-32.215
-32.904
-33.591
-34.272
-34.949
-35.618
-36.278
-36.929
-37.569
-38.197
-38.812
-39.413
-39.999
-40.568
-41.121
-41.655
-42.171
-42.668
-43.144
-43.6
-44.035
-44.448
-44.84
-45.211
-45.561
-45.892
-46.203
-46.496
-46.772
-47.032
-47.278
-47.509
-47.729
-47.937
-48.135
-48.324
-48.506
-48.681
-48.851
-49.018
-49.182
-49.346
-49.509
-49.674
-49.841
-50.012
-50.187
-50.368
-50.555
-50.75
-50.953
-51.165
-51.387
-51.619
-51.862
-52.115
-52.378
-52.65
-52.932
-53.221
-53.517
-53.82
-54.128
-54.439
-54.754
-55.071
-55.388
-55.706
-56.022
-56.335
-56.645
-56.95
-57.249
-57.543
-57.829
-58.107
-58.376
-58.637
-58.887
-59.128
-59.357
-59.575
-59.782
-59.976
-60.157
-60.326
-60.482
-60.626
-60.758
-60.88
-60.99
-61.092
-61.185
-61.27
-61.349
-61.423
-61.492
-61.558
-61.621
-61.684
-61.745
-61.807
-61.87
-61.934
-62.001
-62.07
-62.142
-62.217
-62.295
-62.376
-62.459
-62.546
-62.636
-62.73
-62.826
-62.925
-63.027
-63.131
-63.237
-63.345
-63.453
-63.56
-63.667
-63.771
-63.873
-63.969
-64.061
-64.146
-64.223
-64.293
-64.353
-64.403
-64.442
-64.47
-64.487
-64.491
-64.484
-64.464
-64.433
-64.391
-64.337
-64.273
-64.199
-64.114
-64.021
-63.919
-63.809
-63.691
-63.567
-63.436
-63.301
-63.161
-63.018
-62.874
-62.728
-62.584
-62.44
-62.3
-62.164
-62.034
-61.909
-61.793
-61.684
-61.585
-61.496
-61.416
-61.348
-61.29
-61.242
-61.206
-61.179
-61.162
-61.154
-61.156
-61.165
-61.182
-61.205
-61.234
-61.269
-61.308
-61.35
-61.394
-61.44
-61.487
-61.532
-61.576
-61.617
-61.653
-61.685
-61.709
-61.727
-61.736
-61.736
-61.726
-61.706
-61.675
-61.635
-61.584
-61.524
-61.455
-61.378
-61.292
-61.2
-61.102
-61
-60.894
-60.786
-60.677
-60.569
-60.464
-60.363
-60.268
-60.181
-60.102
-60.034
-59.979
-59.937
-59.911
-59.901
-59.91
-59.938
-59.988
-60.059
-60.151
-60.266
-60.403
-60.56
-60.735
-60.927
-61.134
-61.353
-61.582
-61.818
-62.058
-62.301
-62.544
-62.784
-63.019
-63.245
-63.456
-63.647
-63.813
-63.948
-64.045
-64.099
-64.101
-64.047
-63.934
-63.757
-63.51
-63.188
-62.782
-62.285
-61.696
-61.013
-60.236
-59.365
-58.404
-57.361
-56.253
-55.093
-53.89
-52.647
-51.363
-50.036
-48.667
-47.257
-45.806
-44.309
-42.756
-41.142
-39.465
-37.723
-35.909
-34.001
-31.969
-29.789
-27.45
-24.958
-22.33
-19.58
-16.729
-13.806
-10.847
-7.905
-5.029
-2.255
0.386
2.865
5.143
7.166
8.865
10.189
11.1
11.58
11.62
11.213
10.364
9.092
7.44
5.465
3.214
0.721
-1.99
-4.895
-7.959
-11.138
-14.376
-17.634
-20.88
-24.09
-27.238
-30.303
-33.273
-36.153
-38.971
-41.763
-44.552
-47.348
-50.151
-52.957
-55.765
-58.572
-61.365
-64.122
-66.82
-69.438
-71.963
-74.38
-76.662
-78.77
-80.65
-82.247
-83.523
-84.448
-85.004
-85.189
-85.006
-84.479
-83.649
-82.569
-81.302
-79.916
-78.474
-77.042
-75.687
-74.5
-73.622
-73.16
-73.137
-73.475
-73.997
-74.479
-74.726
-74.5
-73.455
-71.32
-68.047
-63.936
-59.561
-55.59
-52.751
-51.606
-52.653
-56.396
-62.087
-68.252
-74.019
-77.527
-78.255
-76.084
-66.974
-47.884
-15.759
31.396
88.33
149.776
211.509
270.443
328.419
384.554
433.446
466.822
474.9
453.665
406.739
343.353
273.979
205.56
140.635
78.507
19.264
-35.039
-81.603
-117.461
-141.582
-154.836
-158.408
-153.683
-142.439
-126.58
-108.141
-89.115
-70.868
-54.221
-40.1
-29.564
-23.046
-20.397
-21.094
-24.243
-29.103
-35.131
-41.42
-46.722
-50.206
-51.478
-50.475
-47.551
-43.063
-37.294
-30.83
-24.489
-18.855
-14.275
-10.887
-8.554
-7.125
-6.494
-6.43
-6.636
-6.929
-7.203
-7.422
-7.641
-7.892
-8.167
-8.471
-8.792
-9.08
-9.277
-9.337
-9.21
-8.886
-8.369
-7.666
-6.79
-5.755
-4.573
-3.256
-1.812
-0.242
1.447
3.236
5.095
6.976
8.836
10.645
12.386
14.048
15.628
17.124
18.541
19.893
21.193
22.452
23.675
24.864
26.028
27.177
28.328
29.503
30.722
31.997
33.343
34.769
36.284
37.897
39.611
41.427
43.347
45.374
47.513
49.771
52.154
54.665
57.308
60.084
62.998
66.053
69.251
72.594
76.086
79.73
83.527
87.483
91.599
95.876
100.317
104.922
109.689
114.619
119.711
124.967
130.389
135.979
141.733
147.644
153.704
159.901
166.22
172.643
179.143
185.698
192.283
198.879
205.471
212.042
218.571
225.036
231.41
237.667
243.795
249.785
255.627
261.325
266.883
272.319
277.669
282.963
288.22
293.446
298.629
303.753
308.805
313.773
318.641
323.391
327.988
332.391
336.561
340.45
343.997
347.117
349.7
351.632
352.827
353.22
352.773
351.463
349.269
346.167
342.149
337.218
331.384
324.666
317.074
308.618
299.335
289.295
278.605
267.393
255.764
243.803
231.583
219.163
206.608
193.988
181.363
168.786
156.316
144.019
131.982
120.31
109.089
98.371
88.172
78.488
69.315
60.665
52.551
44.98
37.956
31.473
25.528
20.124
15.247
10.866
6.923
3.337
0.024
-3.071
-5.984
-8.736
-11.342
-13.825
-16.205
-18.49
-20.686
-22.798
-24.834
-26.809
-28.732
-30.596
-32.379
-34.046
-35.557
-36.888
-38.024
-38.961
-39.7
-40.243
-40.595
-40.774
-40.799
-40.685
-40.449
-40.099
-39.643
-39.098
-38.484
-37.823
-37.143
-36.464
-35.8
-35.166
-34.57
-34.021
-33.522
-33.073
-32.671
-32.315
-32.003
-31.736
-31.516
-31.343
-31.214
-31.129
-31.084
-31.077
-31.107
-31.172
-31.268
-31.393
-31.546
-31.726
-31.931
-32.16
-32.411
-32.682
-32.969
-33.271
-33.585
-33.908
-34.238
-34.573
-34.909
-35.246
-35.582
-35.916
-36.248
-36.576
-36.9
-37.22
-37.536
-37.848
-38.156
-38.46
-38.759
-39.055
-39.347
-39.634
-39.918
-40.198
-40.475
-40.748
-41.018
-41.285
-41.55
-41.812
-42.073
-42.332
-42.589
-42.845
-43.101
-43.356
-43.611
-43.866
-44.121
-44.377
-44.632
-44.888
-45.143
-45.398
-45.651
-45.903
-46.152
-46.399
-46.642
-46.88
-47.114
-47.343
-47.567
-47.784
-47.995
-48.2
-48.398
-48.589
-48.774
-48.952
-49.123
-49.288
-49.447
-49.599
-49.745
-49.886
-50.021
-50.152
-50.277
-50.399
-50.516
-50.63
-50.741
-50.85
-50.957
-51.063
-51.169
-51.276
-51.384
-51.495
-51.61
-51.729
-51.853
-51.983
-52.12
-52.265
-52.418
-52.58
-52.751
-52.931
-53.122
-53.322
-53.533
-53.754
-53.984
-54.225
-54.474
-54.733
-55.001
-55.277
-55.56
-55.851
-56.148
-56.451
-56.759
-57.07
-57.384
-57.7
-58.016
-58.331
-58.645
-58.954
-59.259
-59.557
-59.847
-60.128
-60.397
-60.654
-60.898
-61.125
-61.337
-61.53
-61.705
-61.859
-61.994
-62.107
-62.198
-62.268
-62.314
-62.338
-62.339
-62.318
-62.273
-62.206
-62.117
-62.007
-61.876
-61.724
-61.554
-61.365
-61.16
-60.938
-60.702
-60.452
-60.191
-59.92
-59.639
-59.352
-59.06
-58.765
-58.467
-58.17
-57.874
-57.582
-57.294
-57.012
-56.738
-56.472
-56.215
-55.969
-55.734
-55.51
-55.299
-55.099
-54.912
-54.737
-54.575
-54.424
-54.285
-54.157
-54.039
-53.93
-53.83
-53.738
-53.653
-53.574
-53.499
-53.428
-53.359
-53.291
-53.222
-53.152
-53.08
-53.003
-52.921
-52.833
-52.738
-52.635
-52.523
-52.402
-52.272
-52.133
-51.985
-51.827
-51.661
-51.487
-51.307
-51.122
-50.932
-50.739
-50.546
-50.353
-50.163
-49.977
-49.797
-49.626
-49.466
-49.318
-49.185
-49.069
-48.971
-48.895
-48.841
-48.812
-48.808
-48.832
-48.885
-48.968
-49.082
-49.228
-49.405
-49.615
-49.857
-50.13
-50.434
-50.767
-51.129
-51.516
-51.928
-52.36
-52.812
-53.279
-53.758
-54.247
-54.741
-55.237
-55.73
-56.218
-56.696
-57.16
-57.606
-58.032
-58.432
-58.805
-59.146
-59.453
-59.724
-59.955
-60.145
-60.292
-60.394
-60.45
-60.459
-60.421
-60.337
-60.206
-60.029
-59.809
-59.547
-59.244
-58.905
-58.532
-58.129
-57.7
-57.248
-56.779
-56.297
-55.808
-55.315
-54.825
-54.342
-53.872
-53.418
-52.987
-52.582
-52.208
-51.868
-51.566
-51.305
-51.088
-50.918
-50.796
-50.723
-50.701
-50.729
-50.808
-50.936
-51.112
-51.335
-51.601
-51.908
-52.252
-52.629
-53.034
-53.463
-53.908
-54.365
-54.825
-55.283
-55.73
-56.16
-56.565
-56.938
-57.272
-57.56
-57.794
-57.969
-58.078
-58.114
-58.072
-57.945
-57.727
-57.413
-57
-56.484
-55.864
-55.137
-54.302
-53.359
-52.311
-51.159
-49.901
-48.538
-47.071
-45.502
-43.844
-42.103
-40.288
-38.408
-36.472
-34.491
-32.482
-30.454
-28.41
-26.353
-24.286
-22.215
-20.158
-18.128
-16.138
-14.198
-12.306
-10.468
-8.694
-6.988
-5.352
-3.784
-2.273
-0.828
0.526
1.765
2.867
3.817
4.613
5.249
5.714
5.998
6.084
5.963
5.638
5.098
4.328
3.312
2.026
0.469
-1.331
-3.353
-5.576
-7.983
-10.57
-13.325
-16.222
-19.244
-22.37
-25.589
-28.896
-32.276
-35.705
-39.156
-42.598
-46.013
-49.402
-52.755
-56.054
-59.275
-62.388
-65.372
-68.216
-70.901
-73.401
-75.686
-77.719
-79.471
-80.922
-82.056
-82.859
-83.325
-83.455
-83.273
-82.827
-82.168
-81.339
-80.384
-79.355
-78.315
-77.342
-76.518
-75.9
-75.568
-75.637
-76.164
-77.15
-78.486
-79.897
-81.086
-81.799
-81.736
-80.556
-78.059
-74.192
-69.234
-63.888
-58.875
-54.789
-52.186
-51.506
-52.937
-56.297
-60.644
-64.265
-65.304
-61.822
-51.871
-33.754
-5.811
32.312
78.614
130.385
184.748
240.416
299.447
362.374
425.539
481.503
517.861
523.438
494.992
434.392
349.013
251.378
151.103
58.068
-16.957
-70.778
-103.29
-118.731
-127.194
-133.727
-139.247
-142.262
-138.273
-126.451
-109.296
-89.788
-71.242
-55.247
-42.182
-32.713
-27.045
-24.945
-25.914
-29.011
-33.434
-38.706
-44.142
-48.767
-51.923
-53.332
-53.021
-51.371
-48.722
-45.27
-41.407
-37.717
-34.59
-32.217
-30.632
-29.656
-29.114
-28.899
-28.814
-28.603
-28.109
-27.264
-26.069
-24.627
-23.03
-21.327
-19.583
-17.859
-16.187
-14.587
-13.06
-11.57
-10.108
-8.682
-7.303
-5.992
-4.762
-3.602
-2.499
-1.431
-0.362
0.734
1.879
3.096
4.389
5.752
7.174
8.626
10.084
11.54
12.985
14.423
15.86
17.292
18.718
20.14
21.551
22.946
24.323
25.678
27.014
28.339
29.668
31.023
32.423
33.884
35.418
37.036
38.745
40.553
42.467
44.488
46.623
48.878
51.258
53.772
56.426
59.223
62.166
65.257
68.497
71.889
75.434
79.134
82.991
87.008
91.187
95.532
100.044
104.725
109.573
114.591
119.78
125.145
130.688
136.405
142.291
148.341
154.541
160.879
167.334
173.881
180.494
187.15
193.828
200.51
207.18
213.819
220.405
226.913
233.32
239.61
245.772
251.797
257.687
263.449
269.103
274.686
280.229
285.763
291.303
296.848
302.389
307.911
313.397
318.83
324.185
329.426
334.512
339.392
344.01
348.301
352.18
355.533
358.247
360.21
361.337
361.57
360.867
359.199
356.547
352.898
348.255
342.635
336.064
328.571
320.189
310.952
300.929
290.218
278.932
267.19
255.085
242.693
230.086
217.325
204.473
191.588
178.716
165.897
153.176
140.611
128.267
116.221
104.52
93.191
82.25
71.71
61.597
51.946
42.782
34.13
26.013
18.459
11.494
5.142
-0.596
-5.738
-10.315
-14.368
-17.932
-21.029
-23.688
-25.941
-27.824
-29.375
-30.63
-31.627
-32.414
-33.049
-33.584
-34.062
-34.508
-34.931
-35.343
-35.749
-36.155
-36.572
-37.003
-37.452
-37.929
-38.445
-39.001
-39.594
-40.202
-40.787
-41.327
-41.807
-42.222
-42.575
-42.864
-43.087
-43.247
-43.347
-43.39
-43.374
-43.285
-43.109
-42.846
-42.503
-42.1
-41.67
-41.231
-40.799
-40.387
-40
-39.647
-39.335
-39.062
-38.825
-38.622
-38.46
-38.348
-38.299
-38.314
-38.39
-38.52
-38.69
-38.889
-39.111
-39.344
-39.582
-39.82
-40.053
-40.283
-40.513
-40.744
-40.974
-41.2
-41.419
-41.629
-41.831
-42.026
-42.216
-42.401
-42.585
-42.77
-42.959
-43.154
-43.356
-43.563
-43.777
-43.996
-44.22
-44.449
-44.684
-44.925
-45.171
-45.425
-45.686
-45.957
-46.236
-46.526
-46.827
-47.138
-47.461
-47.795
-48.14
-48.497
-48.864
-49.242
-49.63
-50.027
-50.432
-50.845
-51.265
-51.689
-52.117
-52.548
-52.979
-53.409
-53.836
-54.259
-54.677
-55.087
-55.489
-55.881
-56.262
-56.632
-56.989
-57.331
-57.658
-57.969
-58.263
-58.538
-58.794
-59.03
-59.245
-59.44
-59.614
-59.767
-59.899
-60.012
-60.104
-60.177
-60.231
-60.268
-60.288
-60.292
-60.281
-60.257
-60.22
-60.173
-60.117
-60.053
-59.982
-59.906
-59.827
-59.744
-59.66
-59.575
-59.491
-59.408
-59.326
-59.248
-59.174
-59.104
-59.039
-58.98
-58.927
-58.88
-58.839
-58.804
-58.774
-58.75
-58.73
-58.715
-58.704
-58.697
-58.693
-58.691
-58.691
-58.691
-58.693
-58.693
-58.693
-58.691
-58.687
-58.679
-58.669
-58.655
-58.637
-58.614
-58.588
-58.556
-58.52
-58.479
-58.432
-58.38
-58.322
-58.26
-58.192
-58.12
-58.043
-57.962
-57.877
-57.789
-57.699
-57.606
-57.511
-57.414
-57.315
-57.215
-57.114
-57.012
-56.908
-56.804
-56.699
-56.593
-56.486
-56.377
-56.267
-56.156
-56.042
-55.927
-55.809
-55.689
-55.566
-55.441
-55.313
-55.183
-55.05
-54.914
-54.775
-54.633
-54.489
-54.341
-54.19
-54.035
-53.877
-53.716
-53.552
-53.385
-53.216
-53.044
-52.872
-52.699
-52.525
-52.352
-52.181
-52.011
-51.843
-51.679
-51.52
-51.364
-51.214
-51.07
-50.932
-50.801
-50.677
-50.56
-50.449
-50.346
-50.25
-50.161
-50.079
-50.004
-49.935
-49.874
-49.819
-49.771
-49.73
-49.695
-49.665
-49.641
-49.622
-49.607
-49.596
-49.587
-49.58
-49.575
-49.57
-49.566
-49.56
-49.553
-49.543
-49.531
-49.515
-49.495
-49.471
-49.442
-49.407
-49.368
-49.324
-49.276
-49.222
-49.165
-49.103
-49.037
-48.967
-48.893
-48.815
-48.733
-48.647
-48.559
-48.468
-48.374
-48.279
-48.183
-48.087
-47.992
-47.898
-47.806
-47.718
-47.634
-47.555
-47.483
-47.418
-47.363
-47.318
-47.284
-47.263
-47.257
-47.264
-47.288
-47.328
-47.385
-47.461
-47.555
-47.668
-47.802
-47.957
-48.134
-48.332
-48.554
-48.797
-49.063
-49.35
-49.658
-49.986
-50.333
-50.698
-51.078
-51.473
-51.88
-52.297
-52.72
-53.148
-53.576
-54
-54.417
-54.822
-55.21
-55.579
-55.922
-56.235
-56.514
-56.754
-56.95
-57.097
-57.191
-57.225
-57.196
-57.099
-56.929
-56.682
-56.355
-55.944
-55.447
-54.862
-54.187
-53.421
-52.562
-51.61
-50.566
-49.43
-48.204
-46.889
-45.49
-44.009
-42.453
-40.827
-39.133
-37.377
-35.564
-33.701
-31.799
-29.864
-27.897
-25.912
-23.929
-21.966
-20.043
-18.17
-16.34
-14.561
-12.862
-11.237
-9.657
-8.099
-6.538
-4.981
-3.489
-2.082
-0.712
0.55
1.496
2.087
2.369
2.312
2.135
1.393
-1.151
-5.158
-9.526
-12.315
-9.993
-2.984
5.223
11.077
9.547
0.605
-11.04
-21.768
-27.578
-27.993
-26.531
-25.273
-25.722
-28.225
-31.328
-34.421
-37.532
-40.61
-43.869
-47.332
-50.792
-54.173
-57.479
-60.671
-63.71
-66.572
-69.244
-71.723
-74.016
-76.105
-77.94
-79.48
-80.702
-81.58
-82.099
-82.261
-82.078
-81.585
-80.842
-79.909
-78.849
-77.742
-76.668
-75.703
-74.92
-74.375
-74.147
-74.363
-75.11
-76.408
-78.153
-80.118
-82.076
-83.817
-85.057
-85.433
-84.628
-82.498
-79.303
-75.616
-71.93
-68.834
-66.986
-66.826
-68.828
-72.517
-75.813
-77.368
-76.443
-72.774
-67.737
-59.358
-42.4
-12.869
32.525
91.876
157.867
225.343
291.448
354.774
414.63
465.198
496.274
499.96
472.973
418.96
346.641
262.697
172.42
80.448
-7.256
-80.385
-131.454
-158.439
-165.785
-164.071
-160.593
-157.781
-154.457
-146.76
-134.066
-118.415
-101.838
-86.647
-73.64
-62.662
-54.119
-47.919
-43.495
-40.381
-38.252
-36.964
-36.563
-36.769
-36.763
-36.019
-34.484
-32.285
-29.639
-26.702
-23.508
-20.3
-17.639
-15.887
-15.153
-15.408
-16.435
-18.024
-20.036
-22.244
-24.344
-26.133
-27.481
-28.314
-28.656
-28.525
-27.922
-26.882
-25.452
-23.667
-21.569
-19.203
-16.61
-13.852
-11.003
-8.13
-5.29
-2.522
0.14
2.669
5.045
7.258
9.309
11.204
12.945
14.535
15.978
17.285
18.474
19.564
20.577
21.538
22.467
23.379
24.289
25.207
26.142
27.102
28.089
29.105
30.157
31.249
32.387
33.581
34.834
36.154
37.545
39.013
40.565
42.207
43.945
45.786
47.738
49.806
51.999
54.324
56.786
59.392
62.145
65.049
68.111
71.334
74.723
78.279
82.005
85.904
89.977
94.227
98.653
103.255
108.031
112.983
118.112
123.42
128.909
134.573
140.409
146.409
152.562
158.854
165.266
171.775
178.358
184.994
191.666
198.358
205.055
211.735
218.382
224.97
231.479
237.892
244.191
250.361
256.396
262.297
268.073
273.748
279.339
284.859
290.319
295.715
301.038
306.276
311.404
316.404
321.251
325.917
330.376
334.599
338.542
342.16
345.395
348.164
350.393
352.005
352.915
353.069
352.42
350.935
348.606
345.43
341.403
336.534
330.83
324.298
316.96
308.835
299.941
290.332
280.062
269.197
257.833
246.048
233.913
221.5
208.855
196.025
183.065
170.018
156.932
143.87
130.889
118.066
105.497
93.263
81.44
70.098
59.283
49.042
39.415
30.431
22.122
14.502
7.609
1.492
-3.876
-8.522
-12.479
-15.831
-18.581
-20.714
-22.35
-23.615
-24.472
-24.944
-24.979
-24.46
-23.616
-22.695
-21.723
-20.79
-20.07
-19.654
-19.815
-20.84
-22.501
-24.551
-26.912
-29.408
-31.926
-34.415
-36.609
-38.254
-39.483
-40.428
-41.141
-41.736
-42.189
-42.443
-42.573
-42.651
-42.61
-42.407
-42.021
-41.418
-40.655
-39.802
-38.893
-37.955
-37.021
-36.11
-35.237
-34.421
-33.664
-32.967
-32.338
-31.783
-31.313
-30.935
-30.656
-30.473
-30.38
-30.361
-30.397
-30.47
-30.572
-30.696
-30.841
-31.004
-31.184
-31.382
-31.6
-31.841
-32.102
-32.38
-32.671
-32.973
-33.283
-33.605
-33.941
-34.291
-34.658
-35.042
-35.443
-35.861
-36.295
-36.743
-37.202
-37.668
-38.141
-38.618
-39.099
-39.583
-40.07
-40.559
-41.049
-41.542
-42.037
-42.533
-43.029
-43.524
-44.018
-44.509
-44.998
-45.483
-45.963
-46.438
-46.908
-47.371
-47.828
-48.278
-48.72
-49.152
-49.575
-49.986
-50.387
-50.774
-51.149
-51.51
-51.858
-52.193
-52.514
-52.821
-53.115
-53.394
-53.658
-53.907
-54.141
-54.358
-54.558
-54.742
-54.909
-55.059
-55.192
-55.308
-55.408
-55.492
-55.56
-55.612
-55.649
-55.672
-55.682
-55.678
-55.662
-55.636
-55.6
-55.556
-55.504
-55.446
-55.383
-55.316
-55.245
-55.172
-55.097
-55.021
-54.945
-54.871
-54.798
-54.728
-54.662
-54.601
-54.545
-54.496
-54.453
-54.419
-54.392
-54.375
-54.366
-54.367
-54.378
-54.399
-54.431
-54.472
-54.523
-54.583
-54.653
-54.73
-54.816
-54.908
-55.007
-55.11
-55.219
-55.332
-55.448
-55.566
-55.686
-55.808
-55.93
-56.051
-56.172
-56.291
-56.407
-56.521
-56.631
-56.737
-56.838
-56.935
-57.026
-57.111
-57.19
-57.263
-57.329
-57.389
-57.442
-57.49
-57.531
-57.567
-57.598
-57.625
-57.648
-57.668
-57.685
-57.701
-57.716
-57.731
-57.746
-57.763
-57.782
-57.805
-57.831
-57.863
-57.899
-57.942
-57.992
-58.049
-58.115
-58.189
-58.273
-58.367
-58.471
-58.586
-58.711
-58.848
-58.996
-59.155
-59.325
-59.506
-59.697
-59.897
-60.106
-60.324
-60.549
-60.781
-61.019
-61.262
-61.508
-61.756
-62.006
-62.255
-62.503
-62.747
-62.988
-63.223
-63.45
-63.669
-63.879
-64.077
-64.263
-64.435
-64.592
-64.733
-64.856
-64.962
-65.048
-65.116
-65.163
-65.191
-65.198
-65.186
-65.154
-65.102
-65.032
-64.943
-64.838
-64.717
-64.582
-64.434
-64.275
-64.107
-63.931
-63.751
-63.567
-63.383
-63.201
-63.023
-62.851
-62.688
-62.537
-62.399
-62.277
-62.173
-62.089
-62.027
-61.989
-61.975
-61.986
-62.023
-62.087
-62.178
-62.295
-62.438
-62.605
-62.797
-63.01
-63.243
-63.494
-63.759
-64.035
-64.318
-64.606
-64.892
-65.174
-65.445
-65.702
-65.938
-66.149
-66.328
-66.471
-66.571
-66.623
-66.621
-66.561
-66.436
-66.243
-65.977
-65.634
-65.21
-64.703
-64.109
-63.428
-62.656
-61.794
-60.841
-59.796
-58.662
-57.439
-56.13
-54.737
-53.266
-51.719
-50.102
-48.421
-46.681
-44.89
-43.054
-41.183
-39.284
-37.367
-35.44
-33.514
-31.599
-29.705
-27.841
-26.019
-24.247
-22.537
-20.898
-19.339
-17.869
-16.498
-15.233
-14.083
-13.055
-12.158
-11.397
-10.78
-10.313
-10.002
-9.851
-9.866
-10.049
-10.404
-10.93
-11.628
-12.497
-13.534
-14.737
-16.104
-17.629
-19.31
-21.14
-23.111
-25.218
-27.449
-29.795
-32.242
-34.778
-37.393
-40.078
-42.828
-45.632
-48.481
-51.364
-54.268
-57.175
-60.066
-62.912
-65.687
-68.364
-70.919
-73.333
-75.586
-77.657
-79.524
-81.157
-82.531
-83.625
-84.423
-84.912
-85.089
-84.973
-84.597
-84.014
-83.281
-82.44
-81.539
-80.631
-79.778
-79.052
-78.525
-78.249
-78.295
-78.761
-79.691
-81.071
-82.779
-84.563
-86.147
-87.296
-87.743
-87.176
-85.4
-82.39
-78.409
-74.033
-69.875
-66.404
-64.033
-63.201
-64.13
-66.615
-69.84
-72.425
-72.81
-69.434
-60.782
-45.232
-21.212
11.471
51.316
96.492
144.581
194.869
248.846
304.994
359.312
404.217
428.396
425.444
395.184
343.123
279.687
213.026
146.443
80.356
15.278
-46.691
-100.576
-141.006
-167.724
-182.131
-187.041
-186.306
-179.682
-167.392
-151.097
-131.688
-111.567
-92.655
-75.298
-60.198
-48.159
-39.263
-33.352
-30.075
-28.715
-28.781
-30.061
-31.973
-33.558
-34.25
-33.846
-32.34
-30.059
-27.258
-24.049
-20.808
-18.129
-16.37
-15.683
-16.059
-17.257
-19.065
-21.329
-23.794
-26.15
-28.186
-29.754
-30.791
-31.328
-31.382
-30.961
-30.099
-28.837
-27.217
-25.286
-23.085
-20.652
-18.042
-15.318
-12.549
-9.794
-7.095
-4.491
-2.006
0.342
2.54
4.587
6.487
8.241
9.852
11.328
12.678
13.916
15.061
16.13
17.148
18.137
19.111
20.081
21.059
22.048
23.056
24.085
25.136
26.21
27.313
28.448
29.624
30.845
32.117
33.445
34.837
36.296
37.832
39.45
41.16
42.968
44.884
46.916
49.072
51.362
53.794
56.374
59.109
62.007
65.073
68.311
71.727
75.323
79.103
83.071
87.227
91.574
96.115
100.852
105.792
110.936
116.283
121.829
127.568
133.49
139.583
145.831
152.212
158.703
165.285
171.939
178.651
185.405
192.183
198.961
205.713
212.414
219.05
225.609
232.08
238.458
244.742
250.943
257.088
263.198
269.283
275.342
281.362
287.327
293.223
299.033
304.739
310.312
315.713
320.901
325.834
330.461
334.722
338.539
341.816
344.465
346.415
347.616
348.028
347.624
346.374
344.266
341.299
337.488
332.855
327.422
321.212
314.26
306.613
298.335
289.502
280.184
270.44
260.326
249.894
239.2
228.295
217.224
206.019
194.705
183.315
171.892
160.483
149.128
137.872
126.752
115.815
105.125
94.738
84.7
75.051
65.815
57.019
48.693
40.866
33.563
26.795
20.559
14.848
9.656
4.963
0.737
-3.074
-6.544
-9.733
-12.689
-15.448
-18.036
-20.48
-22.811
-25.049
-27.208
-29.296
-31.318
-33.28
-35.193
-37.053
-38.849
-40.556
-42.132
-43.551
-44.798
-45.863
-46.745
-47.442
-47.955
-48.292
-48.469
-48.501
-48.401
-48.179
-47.84
-47.395
-46.861
-46.256
-45.605
-44.925
-44.23
-43.531
-42.836
-42.152
-41.483
-40.832
-40.193
-39.565
-38.949
-38.345
-37.755
-37.182
-36.624
-36.082
-35.555
-35.043
-34.546
-34.064
-33.597
-33.146
-32.711
-32.294
-31.898
-31.523
-31.171
-30.843
-30.539
-30.259
-30.006
-29.778
-29.575
-29.399
-29.249
-29.125
-29.029
-28.962
-28.922
-28.912
-28.931
-28.981
-29.061
-29.172
-29.314
-29.487
-29.691
-29.926
-30.191
-30.486
-30.81
-31.163
-31.542
-31.948
-32.378
-32.831
-33.307
-33.802
-34.315
-34.845
-35.39
-35.947
-36.514
-37.091
-37.674
-38.262
-38.854
-39.448
-40.041
-40.632
-41.219
-41.8
-42.374
-42.939
-43.493
-44.034
-44.561
-45.072
-45.564
-46.037
-46.49
-46.92
-47.327
-47.71
-48.068
-48.4
-48.706
-48.986
-49.239
-49.467
-49.668
-49.844
-49.995
-50.122
-50.226
-50.308
-50.369
-50.41
-50.432
-50.437
-50.426
-50.399
-50.359
-50.307
-50.245
-50.174
-50.095
-50.012
-49.926
-49.838
-49.752
-49.668
-49.589
-49.518
-49.455
-49.402
-49.362
-49.336
-49.325
-49.33
-49.353
-49.393
-49.451
-49.529
-49.624
-49.739
-49.871
-50.021
-50.189
-50.373
-50.573
-50.788
-51.016
-51.258
-51.512
-51.776
-52.05
-52.331
-52.619
-52.911
-53.206
-53.502
-53.797
-54.09
-54.379
-54.661
-54.935
-55.201
-55.455
-55.696
-55.924
-56.138
-56.336
-56.518
-56.684
-56.833
-56.966
-57.083
-57.185
-57.271
-57.343
-57.402
-57.447
-57.481
-57.503
-57.516
-57.519
-57.515
-57.503
-57.486
-57.465
-57.441
-57.415
-57.388
-57.361
-57.336
-57.314
-57.295
-57.28
-57.271
-57.268
-57.272
-57.283
-57.301
-57.327
-57.359
-57.399
-57.446
-57.498
-57.555
-57.617
-57.682
-57.75
-57.819
-57.889
-57.959
-58.028
-58.094
-58.158
-58.217
-58.272
-58.321
-58.364
-58.4
-58.428
-58.448
-58.459
-58.462
-58.456
-58.44
-58.415
-58.38
-58.336
-58.283
-58.221
-58.15
-58.071
-57.984
-57.891
-57.792
-57.688
-57.58
-57.469
-57.356
-57.241
-57.125
-57.01
-56.895
-56.782
-56.671
-56.562
-56.457
-56.355
-56.257
-56.164
-56.075
-55.991
-55.913
-55.84
-55.772
-55.71
-55.653
-55.602
-55.556
-55.517
-55.483
-55.455
-55.434
-55.419
-55.409
-55.407
-55.41
-55.42
-55.437
-55.461
-55.492
-55.531
-55.579
-55.635
-55.701
-55.777
-55.865
-55.963
-56.074
-56.198
-56.335
-56.486
-56.651
-56.831
-57.025
-57.234
-57.456
-57.693
-57.944
-58.206
-58.48
-58.763
-59.054
-59.352
-59.654
-59.957
-60.258
-60.556
-60.847
-61.127
-61.393
-61.64
-61.866
-62.066
-62.235
-62.37
-62.465
-62.516
-62.518
-62.467
-62.357
-62.186
-61.948
-61.639
-61.257
-60.796
-60.254
-59.629
-58.918
-58.119
-57.232
-56.256
-55.191
-54.037
-52.796
-51.47
-50.061
-48.572
-47.007
-45.37
-43.667
-41.904
-40.085
-38.217
-36.308
-34.365
-32.396
-30.409
-28.413
-26.417
-24.429
-22.461
-20.521
-18.619
-16.766
-14.971
-13.244
-11.595
-10.033
-8.567
-7.207
-5.961
-4.838
-3.844
-2.988
-2.276
-1.713
-1.308
-1.064
-0.987
-1.082
-1.352
-1.8
-2.43
-3.24
-4.232
-5.403
-6.752
-8.275
-9.97
-11.832
-13.857
-16.039
-18.371
-20.846
-23.455
-26.185
-29.023
-31.957
-34.972
-38.061
-41.214
-44.422
-47.676
-50.965
-54.277
-57.596
-60.902
-64.166
-67.362
-70.461
-73.436
-76.265
-78.924
-81.393
-83.643
-85.645
-87.369
-88.787
-89.876
-90.61
-90.979
-90.996
-90.689
-90.111
-89.317
-88.35
-87.259
-86.112
-84.972
-83.905
-82.985
-82.262
-81.817
-81.792
-82.26
-83.207
-84.546
-86.039
-87.386
-88.337
-88.551
-87.583
-85.204
-81.436
-76.507
-70.994
-65.701
-61.396
-58.779
-58.675
-60.894
-63.937
-67.05
-69.435
-70.636
-71.737
-70.18
-60.266
-37.443
2.401
57.927
122.014
189.6
258.131
326.842
395.576
458.76
505.098
523.991
509.995
464.495
395.272
311.735
221.164
130.54
47.513
-21.583
-72.249
-104.716
-125.205
-139.714
-151.619
-161.012
-164.007
-158.31
-144.877
-126.021
-105.246
-85.153
-66.592
-50.244
-37.018
-27.422
-21.553
-19.235
-19.857
-22.614
-26.937
-32.003
-36.541
-39.764
-41.329
-41.08
-39.305
-36.429
-32.741
-28.771
-25.288
-22.724
-21.279
-21.012
-21.695
-23.073
-24.957
-27.047
-29.004
-30.633
-31.816
-32.491
-32.69
-32.422
-31.689
-30.536
-29.013
-27.159
-25.014
-22.618
-20.02
-17.294
-14.512
-11.731
-8.996
-6.334
-3.767
-1.319
0.991
3.154
5.168
7.033
8.749
10.312
11.726
13.004
14.168
15.247
16.265
17.239
18.184
19.112
20.033
20.957
21.888
22.828
23.782
24.754
25.751
26.783
27.858
28.98
30.156
31.39
32.689
34.058
35.506
37.04
38.667
40.396
42.235
44.195
46.284
48.508
50.875
53.389
56.056
58.879
61.863
65.011
68.329
71.817
75.481
79.322
83.343
87.546
91.934
96.505
101.261
106.204
111.333
116.654
122.167
127.869
133.755
139.816
146.043
152.422
158.934
165.557
172.266
179.039
185.857
192.702
199.556
206.398
213.203
219.945
226.601
233.152
239.584
245.888
252.061
258.105
264.038
269.888
275.678
281.426
287.14
292.815
298.446
304.027
309.549
315.004
320.377
325.646
330.786
335.758
340.509
344.974
349.06
352.66
355.672
357.995
359.549
360.271
360.104
358.998
356.916
353.819
349.677
344.471
338.183
330.822
322.423
313.041
302.767
291.713
279.995
267.743
255.078
242.104
228.926
215.646
202.356
189.162
176.171
163.484
151.204
139.414
128.166
117.5
107.432
97.954
89.053
80.695
72.846
65.481
58.575
52.098
46.024
40.309
34.893
29.726
24.752
19.927
15.228
10.631
6.123
1.706
-2.614
-6.821
-10.894
-14.82
-18.592
-22.199
-25.63
-28.863
-31.866
-34.616
-37.094
-39.286
-41.188
-42.799
-44.119
-45.159
-45.936
-46.469
-46.78
-46.888
-46.808
-46.558
-46.158
-45.632
-45.009
-44.312
-43.558
-42.768
-41.955
-41.133
-40.315
-39.508
-38.716
-37.944
-37.195
-36.474
-35.787
-35.137
-34.525
-33.953
-33.422
-32.932
-32.484
-32.08
-31.718
-31.4
-31.126
-30.897
-30.713
-30.577
-30.487
-30.443
-30.443
-30.487
-30.572
-30.697
-30.859
-31.056
-31.286
-31.547
-31.837
-32.154
-32.496
-32.859
-33.244
-33.646
-34.065
-34.498
-34.945
-35.403
-35.871
-36.348
-36.832
-37.324
-37.82
-38.32
-38.823
-39.327
-39.831
-40.334
-40.834
-41.33
-41.82
-42.304
-42.779
-43.245
-43.7
-44.143
-44.574
-44.992
-45.395
-45.783
-46.156
-46.513
-46.853
-47.177
-47.484
-47.774
-48.048
-48.304
-48.544
-48.768
-48.974
-49.165
-49.339
-49.498
-49.64
-49.768
-49.881
-49.979
-50.064
-50.136
-50.197
-50.246
-50.285
-50.315
-50.337
-50.353
-50.362
-50.366
-50.367
-50.365
-50.361
-50.355
-50.349
-50.344
-50.338
-50.334
-50.331
-50.33
-50.33
-50.332
-50.336
-50.342
-50.35
-50.361
-50.374
-50.389
-50.408
-50.428
-50.451
-50.477
-50.506
-50.537
-50.57
-50.606
-50.645
-50.686
-50.729
-50.774
-50.822
-50.871
-50.921
-50.974
-51.027
-51.082
-51.139
-51.196
-51.255
-51.316
-51.378
-51.442
-51.508
-51.575
-51.645
-51.716
-51.789
-51.865
-51.942
-52.021
-52.102
-52.184
-52.267
-52.351
-52.436
-52.521
-52.606
-52.69
-52.773
-52.854
-52.933
-53.009
-53.081
-53.15
-53.215
-53.275
-53.33
-53.379
-53.422
-53.458
-53.488
-53.511
-53.526
-53.533
-53.531
-53.522
-53.504
-53.478
-53.443
-53.4
-53.349
-53.29
-53.223
-53.148
-53.066
-52.978
-52.884
-52.784
-52.68
-52.572
-52.461
-52.348
-52.234
-52.12
-52.007
-51.895
-51.786
-51.681
-51.58
-51.485
-51.396
-51.314
-51.239
-51.173
-51.116
-51.069
-51.031
-51.004
-50.988
-50.982
-50.988
-51.005
-51.033
-51.072
-51.122
-51.182
-51.253
-51.334
-51.424
-51.523
-51.629
-51.743
-51.863
-51.988
-52.118
-52.25
-52.384
-52.518
-52.652
-52.784
-52.913
-53.037
-53.157
-53.27
-53.376
-53.474
-53.563
-53.643
-53.712
-53.77
-53.817
-53.852
-53.876
-53.887
-53.885
-53.872
-53.846
-53.808
-53.758
-53.697
-53.625
-53.542
-53.449
-53.347
-53.236
-53.118
-52.994
-52.865
-52.732
-52.595
-52.458
-52.32
-52.183
-52.047
-51.915
-51.786
-51.662
-51.544
-51.431
-51.325
-51.227
-51.135
-51.052
-50.975
-50.907
-50.846
-50.792
-50.745
-50.704
-50.67
-50.641
-50.617
-50.597
-50.582
-50.57
-50.56
-50.553
-50.547
-50.541
-50.534
-50.526
-50.516
-50.504
-50.487
-50.467
-50.442
-50.413
-50.379
-50.34
-50.297
-50.25
-50.2
-50.146
-50.091
-50.036
-49.981
-49.928
-49.879
-49.836
-49.8
-49.772
-49.756
-49.751
-49.761
-49.786
-49.827
-49.887
-49.966
-50.065
-50.185
-50.326
-50.49
-50.675
-50.883
-51.113
-51.364
-51.635
-51.924
-52.231
-52.553
-52.888
-53.233
-53.586
-53.941
-54.297
-54.648
-54.989
-55.317
-55.626
-55.911
-56.165
-56.385
-56.563
-56.695
-56.774
-56.796
-56.755
-56.645
-56.462
-56.202
-55.86
-55.432
-54.916
-54.309
-53.608
-52.812
-51.919
-50.931
-49.846
-48.665
-47.39
-46.023
-44.566
-43.024
-41.4
-39.699
-37.927
-36.091
-34.196
-32.251
-30.263
-28.241
-26.194
-24.131
-22.061
-19.995
-17.943
-15.915
-13.922
-11.974
-10.081
-8.254
-6.503
-4.838
-3.267
-1.8
-0.445
0.789
1.895
2.865
3.694
4.374
4.901
5.267
5.47
5.502
5.362
5.046
4.551
3.876
3.022
1.989
0.78
-0.601
-2.151
-3.866
-5.742
-7.772
-9.952
-12.271
-14.724
-17.3
-19.985
-22.768
-25.633
-28.568
-31.565
-34.617
-37.715
-40.851
-44.017
-47.2
-50.384
-53.551
-56.674
-59.726
-62.679
-65.508
-68.193
-70.715
-73.054
-75.186
-77.081
-78.711
-80.046
-81.063
-81.739
-82.066
-82.054
-81.732
-81.151
-80.367
-79.423
-78.367
-77.259
-76.163
-75.153
-74.309
-73.693
-73.392
-73.542
-74.218
-75.411
-76.994
-78.663
-80.071
-80.948
-80.984
-79.783
-77.137
-73.101
-68.059
-62.912
-58.609
-55.783
-55.016
-56.852
-61.388
-68.122
-75.814
-82.224
-84.94
-81.882
-70.945
-50.175
-18.062
25.026
76.527
133.232
191.463
250.533
312.683
376.141
436.599
485.452
508.801
500.132
459.102
389.498
303.448
210.899
119.432
38.65
-26.255
-72.812
-100.784
-116.19
-126.253
-134.886
-143.538
-149.861
-149.869
-142.849
-130.128
-113.892
-97.048
-80.943
-65.921
-52.767
-42.14
-34.345
-29.589
-27.653
-27.878
-29.768
-32.761
-35.852
-38.169
-39.215
-38.674
-36.607
-33.396
-29.355
-24.925
-20.797
-17.456
-15.166
-14.068
-14.056
-14.919
-16.47
-18.42
-20.407
-22.194
-23.636
-24.654
-25.254
-25.433
-25.172
-24.498
-23.453
-22.07
-20.379
-18.399
-16.149
-13.667
-11.012
-8.249
-5.439
-2.634
0.126
2.812
5.397
7.854
10.166
12.325
14.326
16.168
17.854
19.382
20.759
21.997
23.112
24.122
25.049
25.913
26.729
27.512
28.271
29.018
29.76
30.506
31.26
32.028
32.816
33.632
34.484
35.381
36.329
37.337
38.412
39.561
40.793
42.116
43.539
45.075
46.732
48.522
50.454
52.54
54.79
57.21
59.81
62.593
65.566
68.732
72.097
75.663
79.435
83.413
87.601
92
96.612
101.437
106.476
111.723
117.176
122.832
128.686
134.735
140.972
147.388
153.969
160.701
167.567
174.547
181.618
188.75
195.916
203.088
210.237
217.343
224.387
231.346
238.199
244.922
251.495
257.91
264.16
270.235
276.129
281.836
287.352
292.687
297.848
302.835
307.641
312.246
316.623
320.746
324.588
328.122
331.312
334.11
336.461
338.324
339.664
340.454
340.659
340.228
339.117
337.292
334.736
331.45
327.451
322.751
317.368
311.326
304.661
297.427
289.681
281.461
272.789
263.683
254.17
244.305
234.149
223.753
213.159
202.395
191.489
180.476
169.402
158.301
147.201
136.126
125.104
114.192
103.471
93.027
82.926
73.212
63.914
55.061
46.69
38.832
31.511
24.733
18.495
12.797
7.64
3.022
-1.08
-4.709
-7.942
-10.851
-13.494
-15.914
-18.143
-20.211
-22.155
-24.001
-25.764
-27.451
-29.065
-30.614
-32.11
-33.56
-34.958
-36.283
-37.499
-38.579
-39.504
-40.265
-40.859
-41.284
-41.539
-41.63
-41.574
-41.386
-41.083
-40.676
-40.173
-39.585
-38.928
-38.223
-37.494
-36.761
-36.038
-35.336
-34.666
-34.035
-33.45
-32.913
-32.421
-31.974
-31.569
-31.21
-30.897
-30.632
-30.414
-30.24
-30.109
-30.019
-29.969
-29.958
-29.982
-30.041
-30.133
-30.257
-30.414
-30.602
-30.82
-31.066
-31.338
-31.634
-31.951
-32.288
-32.642
-33.011
-33.393
-33.787
-34.192
-34.606
-35.028
-35.457
-35.891
-36.33
-36.773
-37.218
-37.665
-38.112
-38.561
-39.009
-39.456
-39.903
-40.348
-40.791
-41.232
-41.672
-42.108
-42.542
-42.973
-43.401
-43.826
-44.249
-44.669
-45.086
-45.5
-45.911
-46.32
-46.726
-47.128
-47.527
-47.922
-48.313
-48.7
-49.081
-49.458
-49.829
-50.194
-50.553
-50.906
-51.252
-51.59
-51.921
-52.244
-52.558
-52.863
-53.158
-53.445
-53.721
-53.987
-54.244
-54.489
-54.724
-54.947
-55.159
-55.36
-55.548
-55.724
-55.889
-56.041
-56.182
-56.312
-56.431
-56.539
-56.638
-56.727
-56.808
-56.88
-56.945
-57.003
-57.055
-57.102
-57.144
-57.184
-57.222
-57.258
-57.293
-57.329
-57.365
-57.403
-57.443
-57.486
-57.532
-57.582
-57.637
-57.698
-57.764
-57.838
-57.919
-58.007
-58.104
-58.209
-58.323
-58.446
-58.578
-58.718
-58.867
-59.024
-59.189
-59.36
-59.538
-59.722
-59.91
-60.101
-60.294
-60.488
-60.681
-60.872
-61.061
-61.246
-61.426
-61.6
-61.767
-61.925
-62.075
-62.214
-62.342
-62.457
-62.559
-62.646
-62.718
-62.773
-62.811
-62.832
-62.833
-62.815
-62.777
-62.719
-62.64
-62.54
-62.421
-62.281
-62.122
-61.944
-61.749
-61.538
-61.313
-61.074
-60.823
-60.562
-60.292
-60.014
-59.731
-59.443
-59.153
-58.862
-58.571
-58.282
-57.997
-57.717
-57.444
-57.178
-56.922
-56.677
-56.445
-56.226
-56.022
-55.835
-55.666
-55.516
-55.385
-55.275
-55.186
-55.118
-55.07
-55.043
-55.035
-55.047
-55.077
-55.124
-55.188
-55.266
-55.359
-55.463
-55.579
-55.704
-55.837
-55.977
-56.122
-56.271
-56.422
-56.574
-56.727
-56.878
-57.026
-57.171
-57.311
-57.444
-57.569
-57.685
-57.791
-57.885
-57.966
-58.034
-58.089
-58.129
-58.156
-58.169
-58.168
-58.155
-58.128
-58.09
-58.04
-57.98
-57.911
-57.833
-57.75
-57.66
-57.567
-57.471
-57.374
-57.276
-57.179
-57.084
-56.993
-56.905
-56.822
-56.746
-56.678
-56.619
-56.571
-56.535
-56.512
-56.503
-56.511
-56.534
-56.575
-56.634
-56.711
-56.808
-56.923
-57.058
-57.213
-57.387
-57.581
-57.794
-58.025
-58.273
-58.538
-58.819
-59.114
-59.422
-59.742
-60.073
-60.412
-60.76
-61.113
-61.47
-61.828
-62.186
-62.541
-62.89
-63.23
-63.558
-63.871
-64.165
-64.437
-64.684
-64.902
-65.088
-65.239
-65.35
-65.418
-65.439
-65.411
-65.329
-65.189
-64.99
-64.728
-64.399
-64.002
-63.534
-62.993
-62.377
-61.684
-60.913
-60.063
-59.133
-58.124
-57.035
-55.867
-54.621
-53.3
-51.906
-50.441
-48.909
-47.314
-45.659
-43.95
-42.191
-40.388
-38.548
-36.676
-34.779
-32.865
-30.94
-29.013
-27.091
-25.183
-23.296
-21.44
-19.623
-17.853
-16.139
-14.49
-12.915
-11.422
-10.019
-8.715
-7.517
-6.432
-5.468
-4.63
-3.925
-3.361
-2.942
-2.674
-2.563
-2.614
-2.83
-3.215
-3.772
-4.501
-5.401
-6.471
-7.708
-9.112
-10.679
-12.407
-14.291
-16.324
-18.502
-20.815
-23.255
-25.81
-28.465
-31.209
-34.03
-36.923
-39.882
-42.899
-45.967
-49.073
-52.204
-55.344
-58.475
-61.567
-64.594
-67.527
-70.339
-73.012
-75.524
-77.851
-79.967
-81.833
-83.413
-84.68
-85.607
-86.179
-86.4
-86.277
-85.843
-85.145
-84.229
-83.149
-81.971
-80.756
-79.584
-78.535
-77.676
-77.107
-76.964
-77.319
-78.19
-79.479
-80.925
-82.261
-83.255
-83.616
-83.026
-81.269
-78.281
-74.359
-70.19
-66.497
-63.877
-62.809
-63.666
-66.63
-71.523
-77.458
-82.779
-85.537
-83.851
-75.987
-60.296
-35.297
0.189
45.534
98.022
154.66
212.127
269.541
328.768
388.404
444.316
488.383
508.232
497.248
455.355
386.965
301.715
208.251
112.651
22.423
-54.142
-111.566
-147.222
-163.76
-169.455
-169.965
-167.424
-161.601
-149.632
-131.249
-108.859
-85.405
-64.011
-46.441
-33.488
-25.355
-21.518
-21.332
-23.936
-28.221
-33.413
-38.666
-42.823
-45.248
-45.757
-44.357
-41.472
-37.652
-33.25
-28.786
-24.974
-22.186
-20.566
-20.125
-20.608
-21.753
-23.384
-25.229
-26.964
-28.41
-29.454
-30.047
-30.23
-30.01
-29.373
-28.35
-26.976
-25.29
-23.336
-21.156
-18.795
-16.312
-13.768
-11.216
-8.703
-6.256
-3.895
-1.634
0.517
2.546
4.444
6.21
7.843
9.344
10.724
11.994
13.178
14.299
15.379
16.436
17.484
18.533
19.593
20.67
21.764
22.88
24.022
25.194
26.404
27.658
28.96
30.317
31.731
33.207
34.749
36.364
38.055
39.831
41.695
43.654
45.717
47.89
50.178
52.586
55.118
57.778
60.572
63.503
66.575
69.791
73.155
76.671
80.341
84.17
88.159
92.309
96.622
101.101
105.751
110.577
115.585
120.773
126.141
131.686
137.402
143.28
149.303
155.452
161.707
168.051
174.467
180.943
187.466
194.019
200.587
207.15
213.689
220.19
226.639
233.023
239.342
245.597
251.803
257.985
264.164
270.358
276.58
282.828
289.094
295.366
301.618
307.829
313.977
320.03
325.958
331.727
337.283
342.572
347.527
352.056
356.066
359.469
362.165
364.09
365.194
365.437
364.798
363.26
360.803
357.419
353.104
347.855
341.68
334.596
326.624
317.825
308.277
298.068
287.308
276.083
264.464
252.521
240.319
227.921
215.401
202.831
190.276
177.825
165.571
153.602
142.014
130.864
120.182
109.99
100.284
91.071
82.364
74.168
66.478
59.29
52.594
46.371
40.601
35.24
30.22
25.478
20.946
16.576
12.342
8.223
4.208
0.289
-3.542
-7.287
-10.937
-14.49
-17.943
-21.29
-24.521
-27.614
-30.527
-33.229
-35.692
-37.894
-39.831
-41.498
-42.895
-44.029
-44.914
-45.566
-46.005
-46.247
-46.306
-46.199
-45.943
-45.564
-45.09
-44.545
-43.95
-43.321
-42.672
-42.015
-41.361
-40.716
-40.082
-39.461
-38.855
-38.265
-37.698
-37.156
-36.639
-36.148
-35.683
-35.245
-34.834
-34.452
-34.099
-33.777
-33.484
-33.224
-32.998
-32.806
-32.65
-32.527
-32.439
-32.383
-32.36
-32.368
-32.405
-32.47
-32.563
-32.682
-32.826
-32.995
-33.187
-33.402
-33.639
-33.898
-34.177
-34.477
-34.798
-35.138
-35.498
-35.877
-36.274
-36.689
-37.121
-37.57
-38.035
-38.514
-39.008
-39.515
-40.034
-40.564
-41.105
-41.654
-42.212
-42.775
-43.344
-43.916
-44.49
-45.066
-45.641
-46.215
-46.786
-47.353
-47.914
-48.468
-49.013
-49.549
-50.073
-50.585
-51.084
-51.567
-52.034
-52.484
-52.915
-53.327
-53.718
-54.087
-54.433
-54.756
-55.054
-55.329
-55.578
-55.802
-56
-56.174
-56.323
-56.449
-56.551
-56.63
-56.688
-56.726
-56.744
-56.744
-56.726
-56.692
-56.643
-56.581
-56.505
-56.418
-56.32
-56.213
-56.098
-55.976
-55.848
-55.716
-55.582
-55.446
-55.31
-55.176
-55.046
-54.92
-54.8
-54.687
-54.584
-54.491
-54.408
-54.338
-54.279
-54.234
-54.201
-54.182
-54.175
-54.181
-54.199
-54.228
-54.269
-54.321
-54.383
-54.455
-54.537
-54.626
-54.724
-54.829
-54.94
-55.057
-55.178
-55.303
-55.43
-55.559
-55.688
-55.815
-55.94
-56.061
-56.176
-56.284
-56.383
-56.473
-56.552
-56.619
-56.673
-56.714
-56.741
-56.754
-56.753
-56.738
-56.709
-56.668
-56.613
-56.546
-56.467
-56.377
-56.277
-56.167
-56.049
-55.923
-55.791
-55.652
-55.51
-55.364
-55.216
-55.068
-54.921
-54.776
-54.635
-54.499
-54.371
-54.251
-54.141
-54.043
-53.958
-53.888
-53.832
-53.793
-53.77
-53.765
-53.777
-53.808
-53.855
-53.921
-54.004
-54.103
-54.22
-54.352
-54.499
-54.66
-54.835
-55.022
-55.22
-55.429
-55.647
-55.872
-56.104
-56.34
-56.58
-56.823
-57.066
-57.308
-57.548
-57.784
-58.015
-58.24
-58.458
-58.666
-58.865
-59.054
-59.231
-59.396
-59.548
-59.688
-59.814
-59.927
-60.026
-60.112
-60.184
-60.243
-60.288
-60.32
-60.34
-60.348
-60.345
-60.33
-60.305
-60.271
-60.228
-60.177
-60.119
-60.054
-59.983
-59.907
-59.827
-59.743
-59.655
-59.565
-59.473
-59.379
-59.283
-59.186
-59.088
-58.99
-58.89
-58.79
-58.69
-58.589
-58.488
-58.387
-58.287
-58.188
-58.089
-57.992
-57.896
-57.802
-57.709
-57.618
-57.529
-57.441
-57.355
-57.271
-57.189
-57.11
-57.034
-56.961
-56.893
-56.828
-56.769
-56.715
-56.668
-56.628
-56.595
-56.571
-56.556
-56.552
-56.561
-56.583
-56.62
-56.671
-56.738
-56.82
-56.918
-57.029
-57.152
-57.287
-57.433
-57.589
-57.757
-57.935
-58.125
-58.328
-58.545
-58.774
-59.014
-59.263
-59.517
-59.772
-60.027
-60.281
-60.534
-60.785
-61.033
-61.274
-61.504
-61.715
-61.896
-62.031
-62.104
-62.103
-62.018
-61.846
-61.588
-61.246
-60.825
-60.33
-59.759
-59.114
-58.393
-57.597
-56.73
-55.807
-54.846
-53.88
-52.948
-52.079
-51.298
-50.62
-50.043
-49.561
-49.158
-48.808
-48.499
-48.219
-47.956
-47.701
-47.437
-47.13
-46.74
-46.208
-45.459
-44.43
-43.066
-41.321
-39.187
-36.663
-33.769
-30.543
-27.014
-23.206
-19.148
-14.873
-10.424
-5.868
-1.282
3.234
7.555
11.563
15.144
18.202
20.673
22.512
23.691
24.202
24.035
23.176
21.62
19.371
16.45
12.902
8.789
4.196
-0.768
-5.985
-11.346
-16.752
-22.123
-27.394
-32.509
-37.416
-42.062
-46.395
-50.366
-53.941
-57.104
-59.851
-62.194
-64.16
-65.787
-67.12
-68.202
-69.063
-69.72
-70.196
-70.506
-70.681
-70.757
-70.761
-70.718
-70.638
-70.514
-70.344
-70.119
-69.83
-69.482
-69.085
-68.654
-68.226
-67.837
-67.519
-67.319
-67.265
-67.382
-67.713
-68.285
-69.161
-70.458
-72.217
-74.43
-77.007
-79.702
-82.265
-84.509
-86.153
-86.886
-86.544
-85.039
-82.567
-79.728
-77.046
-74.931
-73.807
-73.924
-75.358
-78.048
-81.376
-84.051
-84.7
-81.871
-74.159
-60.369
-39.289
-9.875
28.379
74.372
125.607
179.524
233.381
286.777
341.387
395.631
445.726
483.765
498.253
484.532
443.386
380.497
306.163
225.686
142.286
60.175
-15.84
-77.944
-120.415
-143.293
-151.792
-153.023
-151.661
-148.604
-141.82
-130.244
-115.233
-99.332
-85.352
-74.567
-66.744
-61.482
-58.415
-56.991
-56.489
-55.979
-54.603
-52.089
-48.591
-44.196
-38.852
-32.681
-26.004
-19.391
-13.532
-8.76
-5.11
-2.584
-1.196
-0.929
-1.718
-3.336
-5.413
-7.682
-9.987
-12.234
-14.373
-16.328
-17.994
-19.284
-20.17
-20.65
-20.725
-20.403
-19.674
-18.538
-17.026
-15.191
-13.098
-10.81
-8.378
-5.837
-3.221
-0.571
2.064
4.624
7.07
9.381
11.547
13.56
15.414
17.103
18.632
20.021
21.294
22.468
23.557
24.568
25.515
26.413
27.282
28.146
29.022
29.921
30.854
31.831
32.862
33.955
35.116
36.345
37.644
39.019
40.476
42.023
43.668
45.415
47.27
49.239
51.327
53.541
55.885
58.366
60.988
63.754
66.671
69.744
72.977
76.375
79.94
83.674
87.58
91.658
95.909
100.333
104.93
109.699
114.638
119.747
125.028
130.481
136.107
141.901
147.857
153.964
160.211
166.581
173.057
179.613
186.225
192.87
199.527
206.182
212.818
219.414
225.947
232.39
238.717
244.913
250.968
256.871
262.62
268.219
273.681
279.037
284.314
289.527
294.681
299.764
304.757
309.647
314.423
319.072
323.577
327.909
332.03
335.908
339.504
342.764
345.615
347.956
349.681
350.711
350.986
350.47
349.145
346.988
343.975
340.096
335.346
329.732
323.265
315.945
307.772
298.77
288.995
278.54
267.523
256.04
244.169
231.979
219.528
206.879
194.107
181.276
168.445
155.679
143.054
130.665
118.629
107.043
95.971
85.443
75.462
66.034
57.177
48.904
41.224
34.138
27.635
21.705
16.343
11.529
7.222
3.359
-0.154
-3.405
-6.46
-9.362
-12.137
-14.807
-17.397
-19.928
-22.407
-24.837
-27.219
-29.553
-31.85
-34.111
-36.321
-38.454
-40.469
-42.32
-43.976
-45.422
-46.646
-47.645
-48.42
-48.973
-49.32
-49.478
-49.464
-49.294
-48.976
-48.521
-47.945
-47.269
-46.518
-45.718
-44.891
-44.052
-43.216
-42.393
-41.592
-40.82
-40.078
-39.363
-38.677
-38.021
-37.398
-36.812
-36.264
-35.754
-35.284
-34.853
-34.46
-34.107
-33.792
-33.515
-33.276
-33.076
-32.915
-32.794
-32.714
-32.674
-32.674
-32.712
-32.788
-32.901
-33.049
-33.23
-33.443
-33.687
-33.959
-34.26
-34.586
-34.938
-35.313
-35.71
-36.127
-36.563
-37.016
-37.484
-37.967
-38.461
-38.967
-39.482
-40.006
-40.537
-41.073
-41.615
-42.16
-42.709
-43.258
-43.809
-44.359
-44.907
-45.453
-45.995
-46.532
-47.064
-47.588
-48.104
-48.611
-49.108
-49.594
-50.067
-50.528
-50.974
-51.407
-51.824
-52.225
-52.61
-52.978
-53.329
-53.663
-53.978
-54.274
-54.551
-54.808
-55.046
-55.263
-55.46
-55.637
-55.794
-55.93
-56.046
-56.143
-56.221
-56.28
-56.322
-56.347
-56.355
-56.349
-56.33
-56.298
-56.256
-56.204
-56.143
-56.076
-56.004
-55.927
-55.848
-55.767
-55.687
-55.607
-55.531
-55.459
-55.393
-55.334
-55.284
-55.243
-55.212
-55.193
-55.185
-55.19
-55.207
-55.238
-55.281
-55.337
-55.406
-55.488
-55.58
-55.684
-55.798
-55.921
-56.051
-56.188
-56.33
-56.476
-56.625
-56.775
-56.924
-57.073
-57.218
-57.359
-57.493
-57.62
-57.737
-57.844
-57.938
-58.019
-58.085
-58.135
-58.17
-58.187
-58.188
-58.172
-58.139
-58.09
-58.025
-57.945
-57.852
-57.746
-57.628
-57.501
-57.366
-57.225
-57.079
-56.931
-56.781
-56.632
-56.486
-56.344
-56.207
-56.079
-55.959
-55.851
-55.756
-55.675
-55.611
-55.565
-55.537
-55.53
-55.545
-55.581
-55.64
-55.722
-55.826
-55.953
-56.101
-56.269
-56.456
-56.662
-56.883
-57.118
-57.365
-57.621
-57.885
-58.154
-58.426
-58.698
-58.969
-59.235
-59.496
-59.748
-59.991
-60.222
-60.44
-60.642
-60.827
-60.993
-61.139
-61.264
-61.365
-61.442
-61.494
-61.52
-61.521
-61.495
-61.444
-61.367
-61.266
-61.141
-60.994
-60.825
-60.638
-60.434
-60.216
-59.984
-59.743
-59.494
-59.239
-58.981
-58.721
-58.463
-58.206
-57.954
-57.709
-57.47
-57.241
-57.022
-56.816
-56.623
-56.444
-56.281
-56.134
-56.005
-55.894
-55.801
-55.727
-55.672
-55.637
-55.621
-55.624
-55.646
-55.686
-55.744
-55.819
-55.909
-56.013
-56.13
-56.259
-56.397
-56.545
-56.7
-56.863
-57.031
-57.205
-57.384
-57.567
-57.753
-57.943
-58.134
-58.328
-58.522
-58.718
-58.913
-59.108
-59.302
-59.495
-59.686
-59.874
-60.058
-60.237
-60.409
-60.573
-60.726
-60.866
-60.993
-61.103
-61.195
-61.267
-61.319
-61.35
-61.357
-61.341
-61.299
-61.229
-61.128
-60.992
-60.818
-60.599
-60.334
-60.017
-59.646
-59.217
-58.728
-58.179
-57.568
-56.893
-56.15
-55.335
-54.444
-53.477
-52.435
-51.323
-50.147
-48.918
-47.648
-46.35
-45.034
-43.706
-42.368
-41.016
-39.646
-38.251
-36.832
-35.393
-33.941
-32.477
-31.005
-29.522
-28.021
-26.491
-24.914
-23.271
-21.549
-19.748
-17.877
-15.96
-14.029
-12.12
-10.266
-8.488
-6.805
-5.237
-3.801
-2.52
-1.418
-0.528
0.113
0.458
0.474
0.138
-0.553
-1.583
-2.925
-4.536
-6.382
-8.434
-10.668
-13.065
-15.605
-18.269
-21.037
-23.883
-26.771
-29.656
-32.499
-35.272
-37.962
-40.574
-43.118
-45.617
-48.087
-50.54
-52.978
-55.396
-57.776
-60.095
-62.33
-64.456
-66.46
-68.335
-70.069
-71.647
-73.04
-74.216
-75.147
-75.801
-76.153
-76.199
-75.944
-75.419
-74.673
-73.757
-72.735
-71.684
-70.684
-69.809
-69.126
-68.689
-68.577
-68.902
-69.744
-71.113
-72.901
-74.92
-76.991
-78.947
-80.553
-81.473
-81.387
-80.168
-78.059
-75.488
-72.799
-70.404
-68.777
-68.387
-69.805
-72.568
-74.732
-75.253
-73.661
-70.128
-66.43
-60.471
-46.903
-21.951
17.578
69.978
128.192
188.351
249.075
308.595
365.916
414.578
443.275
445.077
417.849
365.205
296.422
219.55
140.266
64.492
-2.012
-54.955
-91.581
-113.642
-127.518
-137.752
-146.809
-154.452
-157.021
-153.405
-144.691
-132.501
-119.651
-107.426
-95.615
-84.403
-74.054
-64.769
-57.039
-50.956
-46.168
-42.581
-40.201
-38.744
-37.742
-36.75
-35.27
-33.074
-30.291
-27.019
-23.371
-19.634
-16.186
-13.337
-11.372
-10.411
-10.357
-11.084
-12.436
-14.168
-16.023
-17.798
-19.32
-20.481
-21.248
-21.596
-21.523
-21.057
-20.234
-19.085
-17.636
-15.91
-13.938
-11.761
-9.426
-6.983
-4.476
-1.95
0.545
2.968
5.283
7.467
9.511
11.41
13.159
14.759
16.213
17.532
18.731
19.824
20.824
21.747
22.609
23.43
24.233
25.035
25.851
26.691
27.564
28.476
29.437
30.451
31.521
32.65
33.844
35.107
36.446
37.87
39.383
40.99
42.696
44.506
46.426
48.462
50.619
52.902
55.317
57.87
60.567
63.415
66.418
69.581
72.908
76.401
80.064
83.897
87.902
92.078
96.427
100.949
105.649
110.53
115.595
120.842
126.27
131.871
137.637
143.557
149.613
155.785
162.051
168.39
174.785
181.223
187.687
194.161
200.623
207.049
213.419
219.718
225.933
232.056
238.086
244.024
249.888
255.705
261.5
267.294
273.094
278.895
284.688
290.462
296.202
301.891
307.502
312.998
318.336
323.472
328.347
332.898
337.042
340.676
343.703
346.037
347.607
348.366
348.272
347.288
345.393
342.579
338.852
334.236
328.759
322.448
315.343
307.499
298.985
289.891
280.301
270.284
259.909
249.234
238.319
227.228
216.014
204.716
193.365
181.985
170.606
159.272
148.015
136.866
125.851
114.996
104.341
93.947
83.862
74.128
64.776
55.825
47.3
39.233
31.651
24.576
18.022
11.984
6.462
1.458
-3.044
-7.069
-10.665
-13.903
-16.843
-19.525
-21.985
-24.247
-26.335
-28.282
-30.109
-31.83
-33.456
-34.993
-36.453
-37.851
-39.19
-40.462
-41.647
-42.707
-43.618
-44.37
-44.957
-45.378
-45.636
-45.733
-45.677
-45.488
-45.18
-44.767
-44.257
-43.657
-42.975
-42.228
-41.434
-40.617
-39.795
-38.981
-38.185
-37.416
-36.681
-35.984
-35.327
-34.706
-34.119
-33.565
-33.046
-32.564
-32.121
-31.715
-31.346
-31.013
-30.714
-30.45
-30.219
-30.019
-29.851
-29.714
-29.608
-29.534
-29.492
-29.484
-29.507
-29.563
-29.649
-29.766
-29.913
-30.089
-30.292
-30.522
-30.779
-31.062
-31.37
-31.702
-32.058
-32.437
-32.837
-33.258
-33.699
-34.158
-34.635
-35.128
-35.635
-36.155
-36.687
-37.229
-37.779
-38.336
-38.898
-39.464
-40.031
-40.598
-41.162
-41.724
-42.279
-42.828
-43.367
-43.895
-44.412
-44.914
-45.401
-45.872
-46.326
-46.762
-47.178
-47.576
-47.954
-48.313
-48.651
-48.971
-49.271
-49.552
-49.814
-50.058
-50.285
-50.494
-50.687
-50.865
-51.027
-51.176
-51.311
-51.434
-51.545
-51.645
-51.736
-51.818
-51.893
-51.962
-52.025
-52.085
-52.141
-52.196
-52.25
-52.303
-52.357
-52.413
-52.469
-52.527
-52.586
-52.647
-52.709
-52.772
-52.835
-52.9
-52.964
-53.029
-53.092
-53.156
-53.218
-53.279
-53.339
-53.397
-53.455
-53.511
-53.566
-53.62
-53.673
-53.725
-53.776
-53.826
-53.875
-53.922
-53.968
-54.012
-54.055
-54.097
-54.138
-54.178
-54.217
-54.257
-54.298
-54.34
-54.384
-54.43
-54.48
-54.535
-54.594
-54.66
-54.731
-54.81
-54.895
-54.988
-55.089
-55.197
-55.312
-55.434
-55.563
-55.697
-55.838
-55.984
-56.135
-56.29
-56.449
-56.612
-56.777
-56.944
-57.113
-57.283
-57.453
-57.623
-57.791
-57.957
-58.121
-58.28
-58.433
-58.581
-58.721
-58.852
-58.973
-59.083
-59.181
-59.266
-59.337
-59.394
-59.436
-59.462
-59.474
-59.471
-59.453
-59.42
-59.373
-59.312
-59.238
-59.151
-59.052
-58.942
-58.821
-58.691
-58.552
-58.405
-58.25
-58.09
-57.924
-57.753
-57.579
-57.403
-57.226
-57.049
-56.875
-56.704
-56.538
-56.379
-56.228
-56.085
-55.953
-55.832
-55.723
-55.626
-55.542
-55.471
-55.414
-55.37
-55.339
-55.321
-55.316
-55.322
-55.339
-55.367
-55.404
-55.45
-55.504
-55.565
-55.631
-55.703
-55.78
-55.859
-55.941
-56.024
-56.106
-56.186
-56.262
-56.333
-56.397
-56.453
-56.499
-56.534
-56.556
-56.565
-56.559
-56.538
-56.5
-56.445
-56.374
-56.285
-56.179
-56.055
-55.915
-55.759
-55.587
-55.4
-55.2
-54.987
-54.762
-54.526
-54.28
-54.025
-53.763
-53.493
-53.219
-52.94
-52.66
-52.38
-52.101
-51.826
-51.557
-51.295
-51.043
-50.802
-50.575
-50.363
-50.168
-49.992
-49.836
-49.702
-49.591
-49.504
-49.442
-49.406
-49.396
-49.413
-49.456
-49.526
-49.623
-49.747
-49.896
-50.071
-50.272
-50.497
-50.745
-51.016
-51.307
-51.618
-51.946
-52.288
-52.643
-53.008
-53.379
-53.755
-54.131
-54.504
-54.871
-55.228
-55.57
-55.895
-56.198
-56.475
-56.721
-56.933
-57.107
-57.238
-57.323
-57.359
-57.341
-57.265
-57.13
-56.931
-56.664
-56.328
-55.919
-55.435
-54.874
-54.234
-53.514
-52.713
-51.831
-50.869
-49.826
-48.703
-47.503
-46.226
-44.875
-43.454
-41.965
-40.412
-38.801
-37.135
-35.42
-33.661
-31.866
-30.039
-28.188
-26.32
-24.442
-22.561
-20.685
-18.823
-16.982
-15.17
-13.397
-11.671
-9.999
-8.392
-6.856
-5.399
-4.031
-2.758
-1.587
-0.527
0.417
1.235
1.923
2.472
2.876
3.129
3.225
3.159
2.928
2.528
1.958
1.218
0.308
-0.773
-2.024
-3.444
-5.029
-6.777
-8.682
-10.74
-12.944
-15.282
-17.745
-20.32
-22.997
-25.771
-28.637
-31.588
-34.615
-37.711
-40.86
-44.051
-47.263
-50.471
-53.646
-56.758
-59.781
-62.691
-65.469
-68.088
-70.522
-72.733
-74.685
-76.346
-77.69
-78.694
-79.355
-79.678
-79.687
-79.43
-78.945
-78.288
-77.523
-76.707
-75.903
-75.166
-74.545
-74.133
-74.072
-74.466
-75.347
-76.652
-78.214
-79.862
-81.412
-82.572
-82.947
-82.177
-80.135
-77.018
-73.221
-69.287
-65.859
-63.609
-63.342
-65.116
-67.8
-69.965
-70.696
-71.07
-73.203
-77.034
-78.557
-69.274
-41.239
7.75
73.748
147.418
221.26
292.631
360.067
422.066
472.156
501.274
504.304
481.119
438.357
384.542
325.206
262.89
197.231
128.522
59.259
-6.62
-64.697
-112.081
-147.494
-170.77
-182.653
-183.936
-175.702
-160.055
-139.298
-115.68
-91.619
-68.803
-48.527
-32.304
-20.964
-14.435
-12.348
-13.842
-17.632
-22.826
-28.456
-33.158
-36.137
-37.092
-35.904
-32.966
-28.897
-24.122
-19.245
-15.071
-12.019
-10.283
-9.93
-10.728
-12.402
-14.736
-17.384
-19.967
-22.264
-24.139
-25.523
-26.435
-26.873
-26.824
-26.321
-25.412
-24.131
-22.513
-20.58
-18.358
-15.896
-13.263
-10.532
-7.773
-5.035
-2.352
0.243
2.724
5.066
7.256
9.292
11.175
12.905
14.484
15.915
17.206
18.374
19.439
20.424
21.351
22.241
23.106
23.959
24.811
25.67
26.543
27.434
28.346
29.285
30.257
31.269
32.329
33.444
34.62
35.865
37.183
38.583
40.072
41.658
43.351
45.159
47.091
49.158
51.367
53.729
56.25
58.936
61.794
64.827
68.042
71.442
75.03
78.81
82.784
86.953
91.32
95.886
100.652
105.615
110.775
116.131
121.683
127.432
133.377
139.509
145.821
152.301
158.933
165.701
172.583
179.549
186.575
193.633
200.701
207.764
214.8
221.787
228.698
235.503
242.179
248.714
255.095
261.314
267.368
273.26
279.004
284.633
290.17
295.622
300.989
306.252
311.392
316.398
321.257
325.954
330.465
334.749
338.767
342.487
345.863
348.838
351.331
353.231
354.45
354.922
354.603
353.472
351.511
348.696
345.012
340.458
335.044
328.791
321.716
313.823
305.13
295.683
285.565
274.894
263.776
252.295
240.522
228.515
216.335
204.059
191.756
179.475
167.272
155.204
143.347
131.802
120.658
109.974
99.776
90.059
80.821
72.076
63.835
56.107
48.891
42.17
35.937
30.192
24.925
20.109
15.695
11.604
7.764
4.128
0.665
-2.64
-5.803
-8.843
-11.777
-14.611
-17.344
-19.972
-22.498
-24.934
-27.283
-29.536
-31.672
-33.651
-35.444
-37.034
-38.414
-39.581
-40.538
-41.285
-41.832
-42.196
-42.398
-42.455
-42.381
-42.185
-41.879
-41.481
-41.014
-40.503
-39.969
-39.426
-38.89
-38.37
-37.877
-37.416
-36.992
-36.603
-36.248
-35.926
-35.64
-35.392
-35.183
-35.013
-34.881
-34.785
-34.726
-34.701
-34.711
-34.753
-34.827
-34.931
-35.065
-35.228
-35.42
-35.639
-35.884
-36.151
-36.44
-36.747
-37.07
-37.408
-37.757
-38.115
-38.482
-38.856
-39.236
-39.621
-40.011
-40.403
-40.799
-41.198
-41.599
-42.001
-42.405
-42.81
-43.215
-43.621
-44.027
-44.433
-44.838
-45.243
-45.647
-46.05
-46.453
-46.855
-47.256
-47.657
-48.058
-48.459
-48.86
-49.262
-49.664
-50.067
-50.471
-50.876
-51.282
-51.687
-52.093
-52.497
-52.9
-53.3
-53.696
-54.089
-54.476
-54.858
-55.233
-55.6
-55.959
-56.31
-56.65
-56.981
-57.301
-57.61
-57.907
-58.192
-58.465
-58.725
-58.971
-59.204
-59.424
-59.629
-59.819
-59.996
-60.157
-60.305
-60.437
-60.556
-60.66
-60.752
-60.83
-60.896
-60.951
-60.995
-61.03
-61.057
-61.076
-61.09
-61.098
-61.102
-61.103
-61.101
-61.098
-61.094
-61.09
-61.086
-61.083
-61.081
-61.082
-61.085
-61.09
-61.099
-61.111
-61.126
-61.145
-61.167
-61.191
-61.219
-61.251
-61.287
-61.329
-61.377
-61.429
-61.483
-61.541
-61.595
-61.639
-61.672
-61.686
-61.677
-61.66
-61.639
-61.616
-61.624
-61.68
-61.775
-61.923
-62.133
-62.354
-62.555
-62.73
-62.749
-62.505
-62.124
-61.622
-60.911
-60.281
-59.389
-57.712
-56.002
-54.545
-54.592
-58.448
-65.652
-74.553
-81.726
-82.107
-73.716
-58.826
-43.284
-33.82
-35.024
-45.679
-59.483
-70.825
-75.37
-72.97
-67.908
-63.019
-60.099
-59.576
-59.75
-59.87
-59.973
-59.989
-60.196
-60.664
-61.141
-61.549
-61.913
-62.209
-62.43
-62.593
-62.703
-62.781
-62.869
-62.977
-63.085
-63.188
-63.286
-63.376
-63.459
-63.531
-63.588
-63.625
-63.645
-63.649
-63.636
-63.606
-63.558
-63.492
-63.409
-63.307
-63.189
-63.054
-62.904
-62.739
-62.561
-62.371
-62.17
-61.96
-61.743
-61.519
-61.29
-61.057
-60.822
-60.586
-60.351
-60.117
-59.886
-59.66
-59.439
-59.225
-59.02
-58.824
-58.637
-58.462
-58.297
-58.144
-58.003
-57.874
-57.757
-57.652
-57.559
-57.478
-57.408
-57.349
-57.3
-57.26
-57.228
-57.204
-57.186
-57.172
-57.163
-57.157
-57.154
-57.152
-57.151
-57.151
-57.15
-57.149
-57.146
-57.142
-57.136
-57.127
-57.117
-57.104
-57.09
-57.075
-57.061
-57.047
-57.036
-57.029
-57.025
-57.028
-57.037
-57.055
-57.082
-57.119
-57.17
-57.234
-57.313
-57.41
-57.526
-57.661
-57.818
-57.995
-58.195
-58.417
-58.661
-58.927
-59.215
-59.524
-59.854
-60.205
-60.573
-60.958
-61.358
-61.769
-62.188
-62.612
-63.035
-63.454
-63.863
-64.258
-64.634
-64.986
-65.311
-65.603
-65.86
-66.077
-66.249
-66.37
-66.435
-66.438
-66.374
-66.235
-66.016
-65.712
-65.318
-64.831
-64.249
-63.572
-62.796
-61.918
-60.933
-59.84
-58.639
-57.333
-55.925
-54.421
-52.83
-51.166
-49.451
-47.701
-45.926
-44.133
-42.325
-40.504
-38.673
-36.834
-34.989
-33.139
-31.281
-29.418
-27.556
-25.694
-23.822
-21.924
-19.968
-17.937
-15.828
-13.645
-11.402
-9.119
-6.817
-4.528
-2.295
-0.155
1.857
3.717
5.409
6.907
8.177
9.173
9.84
10.135
10.038
9.533
8.615
7.295
5.587
3.531
1.182
-1.413
-4.216
-7.197
-10.338
-13.614
-16.987
-20.416
-23.856
-27.265
-30.616
-33.879
-37.032
-40.063
-42.973
-45.779
-48.516
-51.207
-53.864
-56.493
-59.086
-61.635
-64.131
-66.559
-68.903
-71.149
-73.279
-75.281
-77.14
-78.836
-80.338
-81.606
-82.598
-83.276
-83.614
-83.599
-83.238
-82.557
-81.601
-80.43
-79.097
-77.663
-76.194
-74.764
-73.447
-72.309
-71.409
-70.83
-70.683
-71.069
-72.021
-73.438
-75.12
-76.843
-78.361
-79.391
-79.581
-78.556
-76.145
-72.589
-68.353
-63.914
-59.894
-56.923
-55.536
-56.396
-59.16
-61.85
-63.287
-62.802
-60.13
-56.798
-50.734
-36.26
-9.135
34.102
91.844
156.677
223.577
290.643
357.352
423.575
484.172
527.879
543.241
524.023
470.33
390.207
296.921
202.029
116
45.532
-9.319
-50.757
-83.642
-112.619
-138.222
-158.954
-171.916
-175.11
-169.241
-156.733
-140.827
-123.883
-107.048
-90.929
-75.792
-62.251
-51.257
-43.101
-37.535
-34.204
-32.607
-32.37
-33.265
-34.664
-35.576
-35.435
-34.092
-31.621
-28.347
-24.532
-20.318
-16.091
-12.471
-9.844
-8.366
-8.025
-8.592
-9.853
-11.663
-13.807
-15.996
-18.026
-19.749
-21.052
-21.931
-22.39
-22.417
-22.039
-21.283
-20.166
-18.717
-16.975
-14.971
-12.752
-10.368
-7.849
-5.234
-2.565
0.114
2.744
5.281
7.706
10.005
12.169
14.191
16.061
17.783
19.373
20.849
22.227
23.519
24.733
25.881
26.982
28.054
29.119
30.195
31.291
32.417
33.582
34.795
36.063
37.392
38.781
40.232
41.75
43.342
45.016
46.778
48.633
50.586
52.642
54.807
57.086
59.484
62.007
64.659
67.445
70.373
73.448
76.677
80.065
83.614
87.329
91.212
95.266
99.492
103.89
108.462
113.208
118.133
123.241
128.535
134.012
139.67
145.503
151.501
157.652
163.941
170.343
176.84
183.41
190.036
196.704
203.4
210.104
216.797
223.456
230.058
236.586
243.026
249.365
255.6
261.73
267.766
273.731
279.645
285.522
291.368
297.173
302.923
308.6
314.182
319.646
324.968
330.118
335.06
339.756
344.158
348.216
351.864
355.017
357.588
359.494
360.663
361.048
360.614
359.34
357.218
354.245
350.419
345.747
340.24
333.914
326.789
318.884
310.226
300.87
290.886
280.36
269.376
258.006
246.308
234.335
222.134
209.754
197.247
184.669
172.074
159.525
147.096
134.876
122.963
111.444
100.374
89.787
79.708
70.159
61.168
52.761
44.955
37.759
31.178
25.205
19.834
15.046
10.795
7.018
3.628
0.534
-2.329
-5.007
-7.538
-9.95
-12.275
-14.539
-16.756
-18.933
-21.08
-23.202
-25.307
-27.399
-29.465
-31.479
-33.4
-35.182
-36.794
-38.219
-39.444
-40.467
-41.287
-41.906
-42.338
-42.602
-42.713
-42.684
-42.526
-42.246
-41.861
-41.392
-40.86
-40.293
-39.711
-39.129
-38.56
-38.013
-37.495
-37.011
-36.559
-36.136
-35.74
-35.371
-35.03
-34.72
-34.44
-34.192
-33.974
-33.785
-33.625
-33.492
-33.388
-33.31
-33.257
-33.231
-33.231
-33.258
-33.313
-33.396
-33.507
-33.644
-33.807
-33.995
-34.208
-34.444
-34.701
-34.98
-35.28
-35.6
-35.94
-36.3
-36.679
-37.078
-37.495
-37.93
-38.382
-38.85
-39.334
-39.83
-40.339
-40.859
-41.387
-41.923
-42.466
-43.013
-43.563
-44.116
-44.668
-45.219
-45.767
-46.31
-46.848
-47.377
-47.897
-48.407
-48.904
-49.388
-49.858
-50.312
-50.749
-51.169
-51.569
-51.949
-52.309
-52.647
-52.963
-53.256
-53.527
-53.776
-54.002
-54.208
-54.392
-54.557
-54.703
-54.83
-54.941
-55.036
-55.117
-55.185
-55.242
-55.289
-55.328
-55.36
-55.388
-55.413
-55.438
-55.462
-55.489
-55.519
-55.555
-55.597
-55.647
-55.707
-55.777
-55.858
-55.952
-56.059
-56.179
-56.314
-56.463
-56.626
-56.803
-56.993
-57.197
-57.413
-57.639
-57.877
-58.123
-58.377
-58.637
-58.902
-59.17
-59.44
-59.709
-59.976
-60.24
-60.497
-60.748
-60.989
-61.219
-61.437
-61.641
-61.83
-62.002
-62.156
-62.291
-62.406
-62.5
-62.572
-62.622
-62.65
-62.655
-62.636
-62.596
-62.533
-62.45
-62.345
-62.222
-62.08
-61.922
-61.748
-61.561
-61.362
-61.152
-60.935
-60.711
-60.483
-60.252
-60.021
-59.792
-59.566
-59.345
-59.132
-58.928
-58.734
-58.551
-58.382
-58.228
-58.089
-57.966
-57.861
-57.775
-57.708
-57.661
-57.633
-57.625
-57.637
-57.668
-57.718
-57.786
-57.87
-57.971
-58.087
-58.216
-58.358
-58.511
-58.673
-58.843
-59.02
-59.201
-59.385
-59.57
-59.755
-59.938
-60.119
-60.295
-60.466
-60.631
-60.788
-60.937
-61.077
-61.206
-61.325
-61.432
-61.527
-61.61
-61.68
-61.737
-61.781
-61.813
-61.832
-61.84
-61.837
-61.824
-61.8
-61.768
-61.727
-61.678
-61.623
-61.562
-61.497
-61.428
-61.356
-61.283
-61.209
-61.134
-61.059
-60.985
-60.912
-60.84
-60.77
-60.702
-60.636
-60.572
-60.51
-60.451
-60.395
-60.341
-60.288
-60.238
-60.189
-60.141
-60.093
-60.045
-59.996
-59.947
-59.896
-59.843
-59.787
-59.729
-59.668
-59.603
-59.535
-59.462
-59.386
-59.305
-59.22
-59.132
-59.041
-58.948
-58.853
-58.757
-58.661
-58.567
-58.474
-58.384
-58.299
-58.219
-58.146
-58.081
-58.026
-57.982
-57.951
-57.934
-57.933
-57.949
-57.983
-58.036
-58.109
-58.203
-58.318
-58.455
-58.613
-58.794
-58.995
-59.218
-59.459
-59.719
-59.996
-60.287
-60.589
-60.902
-61.221
-61.543
-61.865
-62.183
-62.493
-62.792
-63.074
-63.335
-63.571
-63.776
-63.945
-64.074
-64.156
-64.188
-64.163
-64.077
-63.926
-63.703
-63.406
-63.031
-62.572
-62.028
-61.396
-60.673
-59.858
-58.95
-57.948
-56.853
-55.666
-54.388
-53.02
-51.566
-50.029
-48.413
-46.723
-44.963
-43.139
-41.258
-39.327
-37.351
-35.341
-33.303
-31.246
-29.178
-27.11
-25.051
-23.01
-20.996
-19.021
-17.094
-15.225
-13.423
-11.698
-10.06
-8.516
-7.076
-5.748
-4.538
-3.455
-2.503
-1.689
-1.02
-0.5
-0.135
0.071
0.114
-0.01
-0.302
-0.765
-1.398
-2.201
-3.17
-4.303
-5.598
-7.05
-8.656
-10.411
-12.31
-14.344
-16.508
-18.792
-21.184
-23.672
-26.244
-28.888
-31.597
-34.363
-37.18
-40.038
-42.93
-45.844
-48.766
-51.677
-54.551
-57.361
-60.083
-62.69
-65.162
-67.48
-69.624
-71.569
-73.289
-74.756
-75.947
-76.842
-77.421
-77.679
-77.633
-77.317
-76.784
-76.092
-75.285
-74.414
-73.547
-72.752
-72.097
-71.648
-71.445
-71.565
-72.143
-73.246
-74.854
-76.859
-79.005
-81.027
-82.723
-83.775
-83.76
-82.445
-79.824
-76.146
-72.018
-68.088
-64.935
-63.28
-63.902
-66.561
-69.949
-72.722
-73.59
-73.083
-72.82
-71.894
-66.318
-49.696
-16.511
34.355
98.419
169.037
242.378
314.74
382.787
440.732
476.614
483.192
459.731
411.246
350.112
283.467
212.467
137.7
59.073
-16.831
-79.777
-123.786
-147.835
-157.812
-161.826
-164.36
-166.143
-164.648
-157.785
-145.943
-131.049
-115.708
-101.116
-87.164
-73.703
-60.712
-48.758
-38.582
-30.335
-23.891
-19.367
-16.924
-16.567
-18.024
-20.456
-22.886
-24.825
-26.113
-26.645
-26.386
-25.326
-23.56
-21.547
-19.889
-18.88
-18.582
-18.911
-19.673
-20.742
-22.025
-23.3
-24.29
-24.817
-24.798
-24.239
-23.225
-21.807
-20.011
-17.885
-15.49
-12.893
-10.163
-7.361
-4.535
-1.729
1.023
3.685
6.224
8.615
10.845
12.91
14.821
16.582
18.197
19.669
21.003
22.214
23.319
24.339
25.295
26.204
27.081
27.939
28.791
29.647
30.514
31.395
32.292
33.207
34.147
35.117
36.125
37.179
38.282
39.441
40.663
41.956
43.328
44.785
46.336
47.988
49.751
51.633
53.644
55.789
58.077
60.513
63.103
65.852
68.766
71.848
75.101
78.528
82.132
85.917
89.885
94.036
98.371
102.891
107.6
112.502
117.598
122.885
128.357
134.008
139.825
145.797
151.906
158.128
164.439
170.819
177.248
183.713
190.199
196.683
203.144
209.553
215.892
222.152
228.322
234.396
240.371
246.252
252.056
257.815
263.548
269.262
274.957
280.612
286.215
291.753
297.211
302.569
307.794
312.842
317.671
322.238
326.488
330.356
333.758
336.591
338.775
340.252
340.977
340.926
340.073
338.396
335.888
332.55
328.401
323.469
317.774
311.339
304.203
296.414
288.044
279.187
269.908
260.263
250.305
240.077
229.628
219.007
208.251
197.393
186.467
175.503
164.552
153.667
142.896
132.29
121.886
111.704
101.792
92.188
82.925
74.04
65.555
57.49
49.87
42.714
36.03
29.823
24.079
18.774
13.88
9.352
5.152
1.248
-2.404
-5.838
-9.082
-12.165
-15.104
-17.912
-20.606
-23.197
-25.689
-28.088
-30.391
-32.586
-34.66
-36.587
-38.344
-39.917
-41.289
-42.453
-43.405
-44.145
-44.678
-45.017
-45.172
-45.156
-44.985
-44.671
-44.228
-43.675
-43.033
-42.324
-41.572
-40.791
-39.999
-39.208
-38.429
-37.669
-36.936
-36.231
-35.555
-34.912
-34.303
-33.733
-33.203
-32.715
-32.269
-31.865
-31.502
-31.183
-30.907
-30.675
-30.487
-30.343
-30.243
-30.188
-30.178
-30.213
-30.291
-30.41
-30.568
-30.764
-30.994
-31.258
-31.55
-31.87
-32.215
-32.581
-32.967
-33.371
-33.79
-34.221
-34.663
-35.113
-35.571
-36.033
-36.497
-36.963
-37.429
-37.893
-38.353
-38.809
-39.259
-39.701
-40.136
-40.561
-40.977
-41.382
-41.776
-42.159
-42.53
-42.89
-43.237
-43.574
-43.899
-44.213
-44.517
-44.811
-45.097
-45.375
-45.646
-45.91
-46.169
-46.424
-46.676
-46.925
-47.173
-47.42
-47.668
-47.916
-48.166
-48.417
-48.672
-48.929
-49.189
-49.453
-49.72
-49.99
-50.264
-50.541
-50.822
-51.106
-51.393
-51.683
-51.976
-52.271
-52.568
-52.866
-53.165
-53.465
-53.763
-54.06
-54.355
-54.646
-54.934
-55.216
-55.493
-55.763
-56.025
-56.28
-56.525
-56.76
-56.986
-57.201
-57.406
-57.6
-57.784
-57.957
-58.12
-58.273
-58.416
-58.549
-58.673
-58.788
-58.894
-58.99
-59.079
-59.158
-59.23
-59.295
-59.353
-59.405
-59.451
-59.493
-59.53
-59.563
-59.594
-59.623
-59.65
-59.676
-59.702
-59.728
-59.756
-59.784
-59.813
-59.844
-59.876
-59.909
-59.943
-59.976
-60.009
-60.042
-60.073
-60.103
-60.131
-60.158
-60.183
-60.205
-60.225
-60.242
-60.257
-60.268
-60.275
-60.278
-60.277
-60.271
-60.259
-60.242
-60.219
-60.19
-60.153
-60.108
-60.056
-59.996
-59.927
-59.851
-59.766
-59.674
-59.575
-59.47
-59.36
-59.246
-59.128
-59.008
-58.886
-58.764
-58.641
-58.518
-58.397
-58.277
-58.159
-58.044
-57.933
-57.825
-57.721
-57.623
-57.529
-57.441
-57.358
-57.283
-57.214
-57.153
-57.1
-57.056
-57.02
-56.994
-56.977
-56.969
-56.969
-56.977
-56.993
-57.014
-57.04
-57.07
-57.103
-57.137
-57.171
-57.205
-57.236
-57.264
-57.287
-57.306
-57.319
-57.326
-57.325
-57.318
-57.302
-57.279
-57.249
-57.21
-57.164
-57.109
-57.047
-56.977
-56.9
-56.816
-56.725
-56.628
-56.527
-56.421
-56.314
-56.205
-56.098
-55.994
-55.895
-55.803
-55.72
-55.65
-55.594
-55.554
-55.532
-55.532
-55.553
-55.599
-55.669
-55.766
-55.889
-56.039
-56.215
-56.418
-56.647
-56.9
-57.176
-57.475
-57.794
-58.131
-58.484
-58.849
-59.225
-59.606
-59.99
-60.373
-60.749
-61.114
-61.464
-61.793
-62.096
-62.367
-62.601
-62.791
-62.932
-63.019
-63.045
-63.005
-62.894
-62.708
-62.442
-62.093
-61.659
-61.136
-60.522
-59.818
-59.021
-58.132
-57.151
-56.079
-54.918
-53.672
-52.342
-50.934
-49.451
-47.899
-46.284
-44.613
-42.892
-41.128
-39.33
-37.506
-35.665
-33.816
-31.968
-30.133
-28.32
-26.539
-24.802
-23.119
-21.499
-19.953
-18.491
-17.121
-15.854
-14.696
-13.656
-12.741
-11.96
-11.32
-10.827
-10.488
-10.307
-10.288
-10.437
-10.757
-11.25
-11.917
-12.758
-13.77
-14.952
-16.304
-17.822
-19.501
-21.336
-23.319
-25.445
-27.704
-30.089
-32.588
-35.186
-37.868
-40.622
-43.44
-46.314
-49.234
-52.188
-55.164
-58.148
-61.125
-64.081
-66.993
-69.834
-72.579
-75.201
-77.674
-79.989
-82.126
-84.067
-85.791
-87.256
-88.431
-89.297
-89.837
-90.051
-89.958
-89.55
-88.834
-87.901
-86.831
-85.726
-84.704
-83.765
-82.895
-82.19
-81.749
-81.569
-81.643
-81.855
-81.991
-82.045
-82.027
-81.787
-81.169
-80.075
-78.414
-76.274
-73.98
-71.755
-69.834
-68.524
-67.985
-68.354
-69.858
-72.529
-75.998
-78.837
-78.793
-74.179
-64.123
-49.997
-34.401
-17.143
3.999
33.294
76.017
132.709
200.186
273.605
345.722
409.908
459.861
488.246
490.121
464.372
414.15
346.1
266.282
180.107
92.265
8.355
-62.685
-114.646
-145.555
-158.568
-162.776
-164.636
-166.413
-167.223
-163.257
-153.378
-139.304
-123.327
-107.752
-93.282
-79.621
-66.862
-55.405
-45.741
-38.011
-31.948
-27.521
-24.886
-24.081
-24.893
-26.563
-28.181
-29.318
-29.88
-29.811
-29.094
-27.723
-25.787
-23.738
-22.164
-21.356
-21.377
-22.139
-23.455
-25.18
-27.182
-29.211
-30.964
-32.244
-32.954
-33.089
-32.714
-31.869
-30.575
-28.876
-26.831
-24.505
-21.954
-19.232
-16.382
-13.454
-10.513
-7.613
-4.801
-2.115
0.425
2.81
5.035
7.102
9.015
10.778
12.398
13.887
15.254
16.513
17.681
18.776
19.821
20.838
21.844
22.851
23.869
24.905
25.963
27.048
28.161
29.304
30.482
31.698
32.961
34.275
35.648
37.083
38.587
40.166
41.825
43.571
45.412
47.354
49.405
51.571
53.862
56.283
58.841
61.542
64.39
67.391
70.549
73.868
77.351
80.999
84.816
88.803
92.963
97.295
101.8
106.48
111.337
116.375
121.597
127
132.579
138.326
144.23
150.279
156.454
162.733
169.091
175.508
181.964
188.446
194.937
201.419
207.87
214.263
220.573
226.788
232.894
238.883
244.753
250.506
256.158
261.739
267.274
272.778
278.255
283.696
289.082
294.4
299.631
304.755
309.751
314.583
319.209
323.59
327.675
331.403
334.705
337.479
339.627
341.072
341.749
341.614
340.645
338.817
336.123
332.566
328.147
322.882
316.798
309.913
302.256
293.866
284.785
275.09
264.878
254.228
243.223
231.93
220.405
208.701
196.869
184.948
172.986
161.03
149.124
137.327
125.707
114.33
103.276
92.61
82.362
72.563
63.237
54.401
46.081
38.3
31.067
24.4
18.306
12.781
7.821
3.407
-0.502
-3.958
-7.035
-9.813
-12.341
-14.664
-16.816
-18.823
-20.714
-22.514
-24.238
-25.897
-27.505
-29.071
-30.605
-32.115
-33.59
-35.012
-36.349
-37.561
-38.623
-39.524
-40.254
-40.813
-41.203
-41.428
-41.502
-41.442
-41.262
-40.974
-40.587
-40.11
-39.556
-38.943
-38.293
-37.629
-36.97
-36.33
-35.719
-35.145
-34.614
-34.128
-33.686
-33.283
-32.916
-32.583
-32.284
-32.02
-31.79
-31.593
-31.425
-31.286
-31.172
-31.081
-31.012
-30.962
-30.93
-30.915
-30.916
-30.934
-30.969
-31.02
-31.086
-31.165
-31.257
-31.36
-31.474
-31.596
-31.725
-31.861
-32.003
-32.151
-32.306
-32.467
-32.635
-32.81
-32.994
-33.185
-33.385
-33.594
-33.813
-34.041
-34.28
-34.528
-34.787
-35.057
-35.337
-35.628
-35.929
-36.241
-36.562
-36.892
-37.231
-37.578
-37.932
-38.293
-38.66
-39.033
-39.411
-39.794
-40.182
-40.573
-40.966
-41.362
-41.758
-42.155
-42.55
-42.943
-43.334
-43.72
-44.101
-44.477
-44.847
-45.209
-45.563
-45.908
-46.243
-46.567
-46.881
-47.183
-47.473
-47.752
-48.019
-48.275
-48.52
-48.754
-48.978
-49.191
-49.394
-49.587
-49.77
-49.945
-50.111
-50.27
-50.421
-50.565
-50.704
-50.837
-50.965
-51.089
-51.21
-51.327
-51.442
-51.554
-51.665
-51.774
-51.884
-51.993
-52.103
-52.214
-52.326
-52.44
-52.556
-52.672
-52.79
-52.909
-53.028
-53.148
-53.269
-53.389
-53.508
-53.627
-53.744
-53.859
-53.972
-54.081
-54.186
-54.286
-54.381
-54.47
-54.551
-54.626
-54.692
-54.749
-54.798
-54.837
-54.866
-54.885
-54.893
-54.889
-54.874
-54.847
-54.809
-54.758
-54.696
-54.623
-54.538
-54.443
-54.338
-54.223
-54.099
-53.966
-53.826
-53.678
-53.523
-53.362
-53.196
-53.026
-52.853
-52.678
-52.502
-52.325
-52.15
-51.976
-51.806
-51.638
-51.476
-51.318
-51.166
-51.022
-50.884
-50.754
-50.633
-50.521
-50.418
-50.324
-50.239
-50.163
-50.097
-50.04
-49.991
-49.951
-49.92
-49.897
-49.883
-49.876
-49.877
-49.885
-49.9
-49.922
-49.949
-49.982
-50.02
-50.061
-50.107
-50.155
-50.205
-50.257
-50.31
-50.364
-50.418
-50.471
-50.523
-50.575
-50.624
-50.672
-50.718
-50.762
-50.804
-50.844
-50.882
-50.918
-50.952
-50.984
-51.014
-51.043
-51.068
-51.092
-51.112
-51.13
-51.145
-51.156
-51.165
-51.17
-51.172
-51.171
-51.167
-51.161
-51.152
-51.141
-51.127
-51.112
-51.094
-51.075
-51.054
-51.032
-51.007
-50.982
-50.955
-50.926
-50.895
-50.862
-50.827
-50.79
-50.75
-50.708
-50.663
-50.615
-50.565
-50.513
-50.459
-50.403
-50.346
-50.287
-50.226
-50.164
-50.099
-50.032
-49.963
-49.89
-49.814
-49.734
-49.649
-49.559
-49.465
-49.364
-49.257
-49.144
-49.023
-48.894
-48.758
-48.613
-48.461
-48.3
-48.131
-47.955
-47.771
-47.58
-47.382
-47.176
-46.965
-46.746
-46.522
-46.291
-46.056
-45.817
-45.574
-45.331
-45.088
-44.847
-44.61
-44.379
-44.156
-43.943
-43.742
-43.555
-43.384
-43.231
-43.098
-42.987
-42.902
-42.843
-42.813
-42.814
-42.845
-42.909
-43.006
-43.136
-43.3
-43.497
-43.727
-43.99
-44.286
-44.615
-44.975
-45.365
-45.782
-46.224
-46.686
-47.166
-47.658
-48.156
-48.655
-49.151
-49.639
-50.113
-50.568
-51
-51.405
-51.777
-52.11
-52.4
-52.637
-52.816
-52.93
-52.972
-52.936
-52.816
-52.607
-52.304
-51.908
-51.415
-50.822
-50.126
-49.319
-48.398
-47.363
-46.214
-44.954
-43.588
-42.123
-40.574
-38.962
-37.308
-35.626
-33.925
-32.206
-30.471
-28.723
-26.967
-25.204
-23.43
-21.641
-19.837
-18.026
-16.212
-14.389
-12.537
-10.617
-8.598
-6.46
-4.199
-1.818
0.676
3.266
5.924
8.601
11.233
13.766
16.162
18.401
20.463
22.309
23.877
25.095
25.893
26.22
26.036
25.298
23.966
22.038
19.539
16.54
13.141
9.421
5.433
1.222
-3.175
-7.699
-12.271
-16.813
-21.258
-25.538
-29.586
-33.311
-36.619
-39.467
-41.854
-43.826
-45.46
-46.809
-47.897
-48.758
-49.424
-49.931
-50.325
-50.628
-50.848
-51.009
-51.143
-51.311
-51.587
-51.997
-52.531
-53.154
-53.82
-54.511
-55.232
-55.976
-56.719
-57.443
-58.138
-58.833
-59.581
-60.426
-61.398
-62.496
-63.733
-65.179
-66.886
-68.852
-70.967
-72.961
-74.525
-75.411
-75.364
-74.093
-71.394
-67.205
-61.797
-55.846
-50.149
-45.421
-42.252
-41.124
-42.292
-45.612
-50.228
-54.514
-56.442
-53.999
-45.316
-28.576
-2.245
34.73
81.629
135.625
193.425
251.557
308.972
367.159
424.901
478.451
519.558
535.782
520.663
474.372
403.971
323.571
243.46
168.825
101.212
37.949
-21.293
-74.15
-118.143
-150.719
-171.336
-181.361
-182.288
-175.489
-162.603
-145.42
-125.762
-105.37
-85.476
-66.806
-50.235
-36.902
-27.333
-21.459
-18.894
-18.899
-20.865
-24.38
-28.619
-32.374
-34.865
-35.769
-35.088
-33.207
-30.467
-27.084
-23.526
-20.481
-18.384
-17.417
-17.554
-18.513
-20.015
-21.869
-23.823
-25.574
-26.934
-27.782
-28.058
-27.806
-27.07
-25.876
-24.276
-22.326
-20.064
-17.543
-14.822
-11.959
-9.031
-6.107
-3.23
-0.438
2.244
4.794
7.19
9.417
11.48
13.384
15.131
16.723
18.155
19.436
20.586
21.629
22.593
23.501
24.368
25.208
26.036
26.86
27.687
28.517
29.349
30.184
31.029
31.895
32.798
33.754
34.775
35.879
37.076
38.377
39.787
41.303
42.923
44.645
46.47
48.407
50.464
52.643
54.947
57.372
59.912
62.55
65.268
68.042
70.857
73.707
76.598
79.55
82.589
85.748
89.054
92.528
96.19
100.053
104.13
108.431
112.973
117.774
122.859
128.255
133.974
140.018
146.374
153.015
159.905
166.989
174.217
181.539
188.911
196.301
203.686
211.044
218.352
225.592
232.742
239.786
246.723
253.543
260.237
266.801
273.229
279.533
285.722
291.798
297.753
303.561
309.183
314.583
319.717
324.528
328.947
332.892
336.271
339.016
341.078
342.413
342.991
342.775
341.737
339.868
337.176
333.68
329.402
324.365
318.597
312.147
305.083
297.494
289.474
281.094
272.412
263.478
254.337
245.027
235.578
225.997
216.278
206.427
196.458
186.398
176.279
166.123
155.943
145.752
135.558
125.38
115.245
105.174
95.194
85.341
75.661
66.218
57.088
48.323
39.958
32.02
24.518
17.458
10.84
4.645
-1.142
-6.535
-11.547
-16.185
-20.453
-24.371
-27.965
-31.269
-34.33
-37.177
-39.837
-42.331
-44.67
-46.857
-48.889
-50.746
-52.412
-53.881
-55.152
-56.23
-57.129
-57.851
-58.403
-58.792
-59.019
-59.088
-59.006
-58.777
-58.411
-57.924
-57.332
-56.663
-55.941
-55.184
-54.407
-53.621
-52.833
-52.053
-51.286
-50.533
-49.8
-49.089
-48.404
-47.753
-47.138
-46.561
-46.022
-45.522
-45.058
-44.63
-44.237
-43.879
-43.555
-43.265
-43.011
-42.794
-42.614
-42.474
-42.371
-42.307
-42.279
-42.288
-42.332
-42.411
-42.522
-42.666
-42.841
-43.048
-43.285
-43.553
-43.851
-44.178
-44.534
-44.919
-45.331
-45.769
-46.232
-46.719
-47.229
-47.76
-48.311
-48.881
-49.467
-50.067
-50.681
-51.306
-51.939
-52.578
-53.221
-53.866
-54.51
-55.15
-55.785
-56.413
-57.03
-57.637
-58.23
-58.807
-59.368
-59.909
-60.43
-60.929
-61.404
-61.854
-62.278
-62.675
-63.045
-63.387
-63.701
-63.987
-64.245
-64.476
-64.679
-64.857
-65.009
-65.137
-65.242
-65.325
-65.387
-65.431
-65.458
-65.469
-65.466
-65.45
-65.423
-65.387
-65.341
-65.289
-65.23
-65.167
-65.099
-65.028
-64.955
-64.881
-64.805
-64.73
-64.654
-64.578
-64.504
-64.429
-64.355
-64.282
-64.209
-64.136
-64.062
-63.989
-63.914
-63.837
-63.759
-63.677
-63.593
-63.504
-63.411
-63.313
-63.21
-63.101
-62.987
-62.867
-62.741
-62.61
-62.474
-62.333
-62.188
-62.04
-61.888
-61.734
-61.579
-61.423
-61.267
-61.112
-60.96
-60.811
-60.666
-60.526
-60.391
-60.263
-60.142
-60.029
-59.925
-59.83
-59.745
-59.672
-59.61
-59.56
-59.523
-59.499
-59.488
-59.491
-59.508
-59.538
-59.581
-59.638
-59.708
-59.791
-59.885
-59.991
-60.108
-60.234
-60.37
-60.513
-60.663
-60.82
-60.981
-61.147
-61.315
-61.487
-61.659
-61.833
-62.007
-62.18
-62.351
-62.52
-62.687
-62.849
-63.007
-63.159
-63.306
-63.447
-63.58
-63.706
-63.824
-63.933
-64.033
-64.123
-64.204
-64.274
-64.334
-64.384
-64.422
-64.451
-64.469
-64.477
-64.475
-64.463
-64.442
-64.412
-64.373
-64.325
-64.269
-64.205
-64.133
-64.054
-63.968
-63.876
-63.778
-63.674
-63.565
-63.452
-63.334
-63.213
-63.088
-62.96
-62.83
-62.699
-62.566
-62.433
-62.3
-62.168
-62.036
-61.905
-61.775
-61.647
-61.519
-61.393
-61.268
-61.144
-61.022
-60.9
-60.78
-60.661
-60.542
-60.423
-60.304
-60.184
-60.063
-59.941
-59.818
-59.692
-59.565
-59.436
-59.304
-59.171
-59.035
-58.896
-58.755
-58.611
-58.465
-58.317
-58.167
-58.017
-57.867
-57.718
-57.571
-57.428
-57.289
-57.156
-57.029
-56.911
-56.801
-56.701
-56.613
-56.537
-56.475
-56.43
-56.401
-56.391
-56.4
-56.43
-56.481
-56.554
-56.649
-56.766
-56.905
-57.067
-57.251
-57.456
-57.683
-57.928
-58.191
-58.468
-58.758
-59.055
-59.357
-59.657
-59.954
-60.241
-60.515
-60.772
-61.008
-61.219
-61.404
-61.557
-61.673
-61.747
-61.773
-61.746
-61.66
-61.508
-61.284
-60.983
-60.601
-60.135
-59.584
-58.944
-58.211
-57.38
-56.446
-55.411
-54.276
-53.045
-51.721
-50.313
-48.832
-47.297
-45.728
-44.138
-42.533
-40.916
-39.289
-37.657
-36.023
-34.391
-32.759
-31.119
-29.47
-27.813
-26.146
-24.465
-22.751
-20.973
-19.109
-17.148
-15.096
-12.965
-10.771
-8.531
-6.271
-4.026
-1.843
0.234
2.17
3.942
5.523
6.879
7.963
8.713
9.082
9.039
8.568
7.664
6.328
4.57
2.417
-0.087
-2.882
-5.917
-9.151
-12.555
-16.098
-19.744
-23.447
-27.152
-30.811
-34.384
-37.839
-41.148
-44.295
-47.276
-50.097
-52.784
-55.366
-57.869
-60.311
-62.697
-65.025
-67.278
-69.439
-71.495
-73.437
-75.271
-77.01
-78.646
-80.152
-81.484
-82.584
-83.41
-83.953
-84.174
-84.018
-83.487
-82.618
-81.561
-80.584
-79.832
-79.326
-79.065
-78.998
-79.077
-79.339
-79.577
-79.326
-78.311
-76.4
-73.637
-70.33
-66.648
-62.551
-58.312
-54.527
-51.752
-50.634
-51.509
-54.288
-59.043
-65.907
-74.667
-84.74
-95.097
-104.132
-110.295
-112.079
-107.799
-96.003
-75.316
-44.656
-3.875
46.265
103.705
164.837
226.159
284.963
339.988
391.079
436.085
470.092
485.917
477.373
443.073
386.649
315.19
235.377
152.262
70.409
-4.616
-66.273
-110.144
-136.061
-148.872
-154.932
-158.069
-158.869
-155.22
-145.82
-131.791
-115.474
-99.42
-84.976
-72.435
-62.087
-54.174
-48.684
-45.28
-43.31
-42.234
-41.779
-41.639
-41.233
-39.94
-37.45
-33.797
-29.308
-24.364
-19.216
-14.163
-9.676
-6.168
-3.862
-2.81
-2.872
-3.833
-5.524
-7.723
-10.146
-12.578
-14.868
-16.905
-18.639
-20.019
-20.995
-21.558
-21.726
-21.513
-20.93
-19.99
-18.708
-17.122
-15.283
-13.244
-11.047
-8.727
-6.318
-3.863
-1.413
0.978
3.275
5.456
7.509
9.425
11.197
12.823
14.314
15.689
16.967
18.162
19.29
20.359
21.384
22.382
23.372
24.378
25.416
26.497
27.634
28.836
30.112
31.469
32.91
34.437
36.051
37.757
39.561
41.472
43.493
45.631
47.89
50.273
52.786
55.432
58.215
61.137
64.203
67.415
70.779
74.3
77.98
81.822
85.829
90
94.336
98.839
103.505
108.334
113.325
118.481
123.804
129.296
134.956
140.778
146.756
152.881
159.14
165.517
171.989
178.535
185.133
191.766
198.419
205.077
211.723
218.334
224.886
231.358
237.737
244.017
250.191
256.262
262.236
268.131
273.98
279.815
285.654
291.505
297.36
303.207
309.037
314.84
320.599
326.292
331.879
337.305
342.52
347.465
352.065
356.232
359.851
362.813
365.034
366.457
367.043
366.764
365.588
363.49
360.466
356.521
351.683
345.994
339.485
332.199
324.198
315.564
306.399
296.808
286.856
276.586
266.036
255.243
244.255
233.122
221.872
210.526
199.103
187.626
176.133
164.664
153.246
141.896
130.632
119.477
108.492
97.759
87.341
77.294
67.66
58.473
49.779
41.623
34.037
27.034
20.614
14.765
9.486
4.766
0.581
-3.109
-6.375
-9.294
-11.926
-14.319
-16.511
-18.536
-20.434
-22.241
-23.977
-25.652
-27.27
-28.835
-30.355
-31.834
-33.261
-34.615
-35.86
-36.965
-37.914
-38.697
-39.312
-39.757
-40.034
-40.148
-40.115
-39.954
-39.681
-39.311
-38.853
-38.32
-37.73
-37.104
-36.468
-35.841
-35.235
-34.663
-34.132
-33.647
-33.213
-32.83
-32.492
-32.197
-31.942
-31.726
-31.548
-31.408
-31.304
-31.232
-31.189
-31.172
-31.18
-31.209
-31.258
-31.323
-31.403
-31.497
-31.604
-31.723
-31.853
-31.992
-32.139
-32.292
-32.45
-32.611
-32.776
-32.942
-33.109
-33.28
-33.453
-33.631
-33.815
-34.006
-34.205
-34.414
-34.634
-34.867
-35.113
-35.373
-35.649
-35.94
-36.248
-36.573
-36.914
-37.272
-37.648
-38.041
-38.45
-38.873
-39.31
-39.763
-40.233
-40.72
-41.223
-41.738
-42.265
-42.809
-43.365
-43.921
-44.465
-44.983
-45.472
-45.951
-46.419
-46.854
-47.268
-47.703
-48.19
-48.764
-49.43
-50.128
-50.842
-51.63
-52.431
-53.028
-53.375
-53.537
-53.483
-53.446
-52.998
-50.804
-47.151
-43.265
-41.166
-44.654
-53.502
-63.895
-72.034
-72.524
-65.018
-54.621
-45.282
-41.261
-43.308
-47.61
-51.823
-54.351
-54.71
-54.457
-54.301
-54.191
-54.18
-54.038
-53.705
-53.391
-53.163
-52.983
-52.858
-52.798
-52.795
-52.839
-52.913
-52.979
-53.026
-53.071
-53.118
-53.166
-53.215
-53.263
-53.31
-53.361
-53.415
-53.472
-53.528
-53.582
-53.634
-53.684
-53.731
-53.773
-53.812
-53.846
-53.875
-53.898
-53.917
-53.931
-53.94
-53.945
-53.946
-53.944
-53.939
-53.931
-53.922
-53.911
-53.899
-53.886
-53.872
-53.858
-53.843
-53.827
-53.81
-53.793
-53.775
-53.755
-53.734
-53.713
-53.69
-53.666
-53.641
-53.615
-53.587
-53.559
-53.53
-53.5
-53.468
-53.434
-53.399
-53.361
-53.32
-53.276
-53.229
-53.177
-53.121
-53.06
-52.995
-52.924
-52.849
-52.769
-52.685
-52.598
-52.508
-52.415
-52.322
-52.228
-52.134
-52.042
-51.953
-51.867
-51.785
-51.709
-51.638
-51.575
-51.519
-51.471
-51.432
-51.402
-51.382
-51.372
-51.373
-51.386
-51.409
-51.445
-51.494
-51.555
-51.629
-51.715
-51.814
-51.926
-52.05
-52.186
-52.332
-52.489
-52.655
-52.83
-53.012
-53.201
-53.394
-53.59
-53.789
-53.988
-54.186
-54.383
-54.577
-54.766
-54.951
-55.13
-55.302
-55.467
-55.624
-55.772
-55.912
-56.042
-56.162
-56.273
-56.374
-56.465
-56.546
-56.617
-56.679
-56.731
-56.773
-56.807
-56.832
-56.848
-56.856
-56.857
-56.851
-56.84
-56.823
-56.803
-56.779
-56.753
-56.726
-56.698
-56.67
-56.643
-56.617
-56.593
-56.571
-56.552
-56.535
-56.52
-56.508
-56.498
-56.49
-56.483
-56.477
-56.469
-56.461
-56.451
-56.439
-56.425
-56.407
-56.386
-56.361
-56.332
-56.299
-56.262
-56.219
-56.17
-56.114
-56.051
-55.98
-55.901
-55.813
-55.716
-55.61
-55.495
-55.37
-55.236
-55.093
-54.94
-54.779
-54.609
-54.432
-54.249
-54.062
-53.873
-53.684
-53.498
-53.317
-53.143
-52.976
-52.82
-52.674
-52.539
-52.415
-52.303
-52.202
-52.116
-52.045
-51.992
-51.96
-51.95
-51.965
-52.008
-52.08
-52.182
-52.311
-52.468
-52.65
-52.861
-53.102
-53.374
-53.675
-54
-54.348
-54.71
-55.08
-55.445
-55.782
-56.079
-56.326
-56.517
-56.656
-56.741
-56.772
-56.75
-56.675
-56.552
-56.385
-56.178
-55.927
-55.638
-55.32
-54.996
-54.703
-54.468
-54.301
-54.21
-54.189
-54.234
-54.342
-54.495
-54.664
-54.825
-54.952
-55.031
-55.058
-55.013
-54.872
-54.594
-54.118
-53.396
-52.399
-51.093
-49.458
-47.48
-45.143
-42.465
-39.485
-36.236
-32.752
-29.059
-25.17
-21.122
-16.962
-12.747
-8.556
-4.462
-0.533
3.147
6.504
9.475
11.992
14.025
15.57
16.616
17.156
17.183
16.685
15.671
14.165
12.192
9.792
7.015
3.915
0.568
-2.953
-6.587
-10.269
-13.958
-17.63
-21.255
-24.804
-28.259
-31.594
-34.8
-37.88
-40.831
-43.657
-46.37
-48.987
-51.537
-54.046
-56.523
-58.97
-61.377
-63.729
-66.014
-68.219
-70.326
-72.313
-74.152
-75.807
-77.243
-78.434
-79.349
-79.962
-80.257
-80.231
-79.904
-79.32
-78.522
-77.558
-76.487
-75.368
-74.278
-73.299
-72.501
-71.981
-71.869
-72.243
-73.128
-74.451
-75.985
-77.472
-78.671
-79.277
-78.959
-77.487
-74.777
-71.078
-67.018
-63.322
-60.634
-59.495
-60.329
-63.346
-68.415
-74.716
-80.685
-84.31
-83.544
-76.657
-61.982
-38.063
-3.962
40.552
93.737
151.999
211.913
270.051
324.996
377.769
426.355
467.478
495.279
499.683
476.422
424.699
346.932
254.28
156.262
62.214
-16.632
-76.999
-118.272
-142.718
-158.401
-169.453
-177.041
-180.757
-176.934
-164.829
-146.45
-124.228
-101.713
-80.991
-62.794
-48.156
-37.503
-30.7
-27.544
-27.348
-29.068
-31.984
-35.256
-37.657
-38.471
-37.451
-34.555
-30.183
-24.899
-19.09
-13.315
-8.347
-4.611
-2.304
-1.488
-1.937
-3.396
-5.668
-8.445
-11.374
-14.231
-16.851
-19.111
-20.972
-22.393
-23.33
-23.794
-23.805
-23.378
-22.528
-21.275
-19.644
-17.679
-15.44
-12.979
-10.342
-7.572
-4.72
-1.845
0.988
3.731
6.355
8.839
11.171
13.337
15.332
17.16
18.838
20.381
21.807
23.126
24.35
25.492
26.569
27.603
28.616
29.627
30.646
31.686
32.755
33.864
35.02
36.226
37.484
38.797
40.171
41.611
43.127
44.726
46.414
48.196
50.081
52.075
54.185
56.417
58.779
61.276
63.916
66.703
69.645
72.746
76.012
79.446
83.051
86.831
90.787
94.921
99.234
103.728
108.403
113.259
118.293
123.507
128.899
134.473
140.227
146.154
152.244
158.487
164.87
171.376
177.985
184.669
191.402
198.16
204.923
211.675
218.397
225.064
231.65
238.126
244.471
250.674
256.725
262.617
268.354
273.944
279.412
284.796
290.122
295.403
300.641
305.826
310.954
316.021
321.017
325.935
330.755
335.445
339.973
344.295
348.346
352.041
355.276
357.921
359.872
361.048
361.376
360.805
359.291
356.794
353.292
348.774
343.23
336.66
329.073
320.497
311.002
300.684
289.665
278.099
266.123
253.862
241.445
228.979
216.557
204.265
192.171
180.334
168.827
157.726
147.094
136.978
127.392
118.323
109.746
101.608
93.86
86.448
79.306
72.389
65.668
59.124
52.75
46.541
40.474
34.52
28.66
22.882
17.186
11.586
6.095
0.737
-4.453
-9.435
-14.162
-18.599
-22.73
-26.547
-30.051
-33.244
-36.12
-38.676
-40.916
-42.844
-44.47
-45.805
-46.857
-47.642
-48.184
-48.514
-48.664
-48.662
-48.53
-48.284
-47.94
-47.512
-47.015
-46.461
-45.858
-45.217
-44.546
-43.858
-43.162
-42.47
-41.787
-41.115
-40.46
-39.823
-39.209
-38.62
-38.06
-37.531
-37.035
-36.577
-36.158
-35.783
-35.451
-35.162
-34.917
-34.713
-34.552
-34.43
-34.347
-34.299
-34.285
-34.304
-34.354
-34.432
-34.538
-34.669
-34.823
-34.999
-35.195
-35.41
-35.641
-35.888
-36.148
-36.421
-36.705
-37.001
-37.307
-37.622
-37.946
-38.28
-38.621
-38.97
-39.326
-39.69
-40.06
-40.438
-40.823
-41.216
-41.616
-42.024
-42.44
-42.865
-43.298
-43.739
-44.189
-44.646
-45.111
-45.583
-46.061
-46.545
-47.034
-47.527
-48.024
-48.523
-49.023
-49.524
-50.025
-50.524
-51.021
-51.514
-52.003
-52.486
-52.963
-53.433
-53.895
-54.347
-54.79
-55.221
-55.64
-56.046
-56.437
-56.814
-57.174
-57.517
-57.843
-58.15
-58.438
-58.707
-58.957
-59.186
-59.396
-59.587
-59.757
-59.909
-60.042
-60.156
-60.253
-60.332
-60.395
-60.442
-60.473
-60.49
-60.493
-60.482
-60.459
-60.423
-60.376
-60.319
-60.252
-60.177
-60.094
-60.005
-59.911
-59.812
-59.711
-59.608
-59.504
-59.4
-59.298
-59.198
-59.102
-59.009
-58.922
-58.839
-58.763
-58.692
-58.628
-58.57
-58.519
-58.474
-58.436
-58.405
-58.379
-58.361
-58.348
-58.342
-58.343
-58.349
-58.361
-58.38
-58.403
-58.432
-58.464
-58.501
-58.541
-58.584
-58.629
-58.676
-58.724
-58.772
-58.821
-58.869
-58.916
-58.962
-59.006
-59.047
-59.087
-59.124
-59.158
-59.19
-59.22
-59.247
-59.273
-59.296
-59.318
-59.338
-59.356
-59.372
-59.386
-59.398
-59.408
-59.417
-59.423
-59.428
-59.432
-59.434
-59.435
-59.434
-59.431
-59.427
-59.42
-59.412
-59.401
-59.387
-59.371
-59.352
-59.33
-59.304
-59.275
-59.241
-59.203
-59.16
-59.112
-59.058
-58.998
-58.931
-58.858
-58.779
-58.692
-58.599
-58.5
-58.394
-58.281
-58.162
-58.037
-57.905
-57.767
-57.623
-57.474
-57.321
-57.163
-57.002
-56.838
-56.673
-56.506
-56.34
-56.174
-56.01
-55.848
-55.689
-55.534
-55.385
-55.241
-55.103
-54.973
-54.852
-54.738
-54.634
-54.54
-54.455
-54.379
-54.313
-54.257
-54.21
-54.173
-54.146
-54.129
-54.121
-54.123
-54.133
-54.153
-54.18
-54.215
-54.257
-54.304
-54.356
-54.412
-54.471
-54.533
-54.596
-54.66
-54.723
-54.786
-54.847
-54.906
-54.961
-55.012
-55.059
-55.102
-55.14
-55.174
-55.204
-55.231
-55.256
-55.278
-55.3
-55.32
-55.339
-55.359
-55.379
-55.401
-55.424
-55.45
-55.48
-55.516
-55.557
-55.606
-55.663
-55.73
-55.807
-55.895
-55.994
-56.106
-56.23
-56.367
-56.518
-56.682
-56.86
-57.051
-57.255
-57.469
-57.693
-57.925
-58.161
-58.397
-58.632
-58.862
-59.084
-59.295
-59.492
-59.672
-59.833
-59.974
-60.091
-60.181
-60.238
-60.259
-60.238
-60.171
-60.05
-59.872
-59.631
-59.323
-58.947
-58.499
-57.978
-57.382
-56.705
-55.942
-55.091
-54.151
-53.122
-52.007
-50.812
-49.546
-48.222
-46.859
-45.465
-44.049
-42.615
-41.159
-39.681
-38.18
-36.651
-35.098
-33.522
-31.923
-30.305
-28.67
-27.011
-25.32
-23.576
-21.753
-19.84
-17.835
-15.743
-13.586
-11.386
-9.172
-6.986
-4.859
-2.819
-0.894
0.898
2.538
3.996
5.239
6.221
6.892
7.215
7.17
6.743
5.941
4.781
3.288
1.509
-0.515
-2.756
-5.185
-7.782
-10.534
-13.41
-16.38
-19.407
-22.441
-25.446
-28.396
-31.269
-34.061
-36.774
-39.418
-42.019
-44.593
-47.146
-49.677
-52.165
-54.586
-56.922
-59.156
-61.274
-63.267
-65.122
-66.82
-68.336
-69.64
-70.708
-71.51
-72.02
-72.228
-72.14
-71.784
-71.211
-70.468
-69.613
-68.714
-67.841
-67.072
-66.489
-66.151
-66.147
-66.59
-67.536
-68.99
-70.855
-72.894
-74.86
-76.536
-77.642
-77.861
-76.976
-74.914
-71.907
-68.536
-65.404
-62.998
-61.755
-62.078
-64.173
-67.888
-72.431
-76.3
-77.783
-75.291
-67.211
-51.913
-28.015
5.497
47.788
96.062
147.623
199.665
251.385
304.118
355.768
401.919
435.391
445.966
429.23
385.91
320.107
240.935
155.977
71.761
-3.676
-64.773
-108.027
-133.415
-146.471
-152.98
-156.698
-158.744
-156.754
-149.544
-138.269
-125.09
-113.076
-103.752
-96.887
-91.965
-88.26
-85.073
-81.9
-78.121
-73.132
-66.837
-59.492
-51.459
-43.175
-35.035
-27.391
-20.637
-15.124
-10.981
-8.175
-6.586
-6.037
-6.382
-7.491
-9.205
-11.343
-13.745
-16.28
-18.834
-21.321
-23.643
-25.686
-27.346
-28.554
-29.273
-29.497
-29.241
-28.52
-27.357
-25.794
-23.881
-21.68
-19.251
-16.646
-13.916
-11.112
-8.288
-5.508
-2.827
-0.282
2.105
4.326
6.378
8.26
9.974
11.537
12.966
14.282
15.499
16.63
17.688
18.69
19.656
20.61
21.572
22.554
23.568
24.62
25.718
26.869
28.075
29.337
30.654
32.03
33.467
34.973
36.555
38.216
39.96
41.793
43.718
45.743
47.871
50.108
52.457
54.923
57.511
60.226
63.073
66.055
69.178
72.443
75.854
79.414
83.125
86.989
91.008
95.183
99.514
104.004
108.658
113.479
118.473
123.637
128.971
134.469
140.122
145.917
151.838
157.861
163.965
170.126
176.327
182.554
188.792
195.023
201.231
207.39
213.482
219.493
225.416
231.246
236.987
242.647
248.248
253.827
259.418
265.05
270.737
276.477
282.259
288.072
293.903
299.739
305.556
311.322
316.996
322.535
327.884
332.979
337.729
342.016
345.722
348.736
350.974
352.377
352.9
352.505
351.155
348.828
345.513
341.209
335.919
329.645
322.397
314.208
305.15
295.329
284.868
273.886
262.484
250.743
238.741
226.56
214.279
201.967
189.689
177.514
165.52
153.805
142.466
131.573
121.163
111.243
101.803
92.832
84.326
76.283
68.695
61.548
54.829
48.528
42.636
37.127
31.956
27.055
22.351
17.795
13.355
9.017
4.775
0.624
-3.439
-7.411
-11.281
-15.04
-18.68
-22.202
-25.6
-28.862
-31.96
-34.852
-37.501
-39.884
-41.987
-43.805
-45.336
-46.581
-47.549
-48.256
-48.722
-48.966
-49.003
-48.844
-48.505
-48.005
-47.369
-46.625
-45.798
-44.907
-43.972
-43.005
-42.021
-41.031
-40.042
-39.056
-38.078
-37.114
-36.17
-35.252
-34.366
-33.517
-32.708
-31.943
-31.223
-30.551
-29.927
-29.353
-28.832
-28.366
-27.959
-27.612
-27.322
-27.086
-26.903
-26.769
-26.681
-26.635
-26.625
-26.649
-26.705
-26.794
-26.917
-27.074
-27.259
-27.466
-27.685
-27.917
-28.17
-28.453
-28.782
-29.156
-29.558
-29.983
-30.431
-30.9
-31.407
-31.935
-32.422
-32.887
-33.411
-34.066
-34.954
-36.069
-37.24
-38.404
-39.616
-40.782
-41.732
-42.267
-42.064
-41.121
-39.823
-38.375
-36.826
-35.361
-34.153
-33.477
-33.82
-35.216
-37.204
-39.506
-41.956
-44.36
-46.649
-48.618
-49.842
-50.273
-50.231
-49.927
-49.537
-49.179
-48.81
-48.499
-48.447
-48.681
-49.082
-49.562
-50.02
-50.417
-50.81
-51.207
-51.573
-51.901
-52.201
-52.484
-52.775
-53.077
-53.37
-53.64
-53.878
-54.083
-54.26
-54.413
-54.541
-54.645
-54.725
-54.78
-54.812
-54.823
-54.815
-54.789
-54.746
-54.69
-54.622
-54.547
-54.469
-54.389
-54.308
-54.225
-54.143
-54.061
-53.981
-53.906
-53.837
-53.773
-53.717
-53.671
-53.634
-53.608
-53.594
-53.591
-53.599
-53.618
-53.648
-53.689
-53.74
-53.801
-53.871
-53.949
-54.035
-54.127
-54.224
-54.325
-54.429
-54.536
-54.643
-54.749
-54.855
-54.958
-55.058
-55.154
-55.246
-55.333
-55.415
-55.49
-55.558
-55.619
-55.673
-55.718
-55.756
-55.785
-55.805
-55.817
-55.822
-55.818
-55.808
-55.791
-55.769
-55.741
-55.709
-55.672
-55.633
-55.591
-55.548
-55.503
-55.458
-55.413
-55.368
-55.324
-55.281
-55.239
-55.198
-55.158
-55.119
-55.08
-55.041
-55.002
-54.963
-54.923
-54.882
-54.84
-54.797
-54.752
-54.705
-54.656
-54.604
-54.549
-54.49
-54.429
-54.363
-54.293
-54.219
-54.141
-54.059
-53.973
-53.883
-53.789
-53.692
-53.593
-53.491
-53.388
-53.285
-53.182
-53.081
-52.984
-52.891
-52.804
-52.723
-52.651
-52.587
-52.534
-52.491
-52.46
-52.44
-52.434
-52.44
-52.459
-52.492
-52.537
-52.594
-52.664
-52.746
-52.842
-52.95
-53.069
-53.196
-53.334
-53.485
-53.64
-53.795
-53.943
-54.077
-54.2
-54.324
-54.436
-54.526
-54.614
-54.716
-54.843
-55.016
-55.216
-55.406
-55.604
-55.846
-56.038
-56.071
-56.011
-55.849
-55.568
-55.401
-54.719
-52.906
-50.843
-48.8
-48.395
-51.562
-56.164
-60.778
-63.284
-60.765
-55.806
-50.597
-46.641
-46.417
-48.159
-50.074
-51.769
-52.151
-51.862
-51.719
-51.572
-51.528
-51.535
-51.43
-51.324
-51.307
-51.351
-51.453
-51.623
-51.86
-52.158
-52.512
-52.907
-53.32
-53.758
-54.223
-54.71
-55.213
-55.729
-56.25
-56.775
-57.301
-57.822
-58.332
-58.826
-59.299
-59.747
-60.163
-60.541
-60.874
-61.154
-61.375
-61.528
-61.608
-61.609
-61.526
-61.353
-61.089
-60.728
-60.268
-59.703
-59.027
-58.236
-57.329
-56.307
-55.175
-53.939
-52.612
-51.207
-49.737
-48.213
-46.645
-45.035
-43.383
-41.684
-39.937
-38.144
-36.312
-34.449
-32.56
-30.65
-28.719
-26.761
-24.766
-22.72
-20.604
-18.408
-16.132
-13.789
-11.405
-9.012
-6.653
-4.358
-2.152
-0.058
1.906
3.719
5.358
6.796
7.999
8.93
9.54
9.795
9.67
9.161
8.283
7.064
5.545
3.761
1.739
-0.496
-2.927
-5.534
-8.3
-11.205
-14.225
-17.327
-20.465
-23.599
-26.698
-29.746
-32.744
-35.706
-38.65
-41.594
-44.548
-47.515
-50.489
-53.458
-56.398
-59.284
-62.09
-64.797
-67.398
-69.886
-72.246
-74.456
-76.479
-78.274
-79.804
-81.037
-81.943
-82.515
-82.757
-82.69
-82.363
-81.821
-81.117
-80.315
-79.469
-78.649
-77.931
-77.376
-77.071
-77.138
-77.64
-78.603
-79.98
-81.569
-83.16
-84.562
-85.494
-85.646
-84.804
-82.806
-79.761
-76.168
-72.515
-69.269
-66.952
-65.951
-66.558
-68.945
-72.669
-76.512
-79.088
-78.858
-74.095
-63.207
-44.55
-16.386
21.558
67.378
118.783
173.148
229.3
289.198
353.19
417.896
475.808
514.521
523.402
498.895
444.049
367.86
280.766
190.351
102.818
24.433
-39.473
-85.008
-112.059
-125.991
-132.845
-136.605
-138.607
-136.932
-130.625
-121.076
-110.486
-101.214
-94.135
-88.687
-84.076
-79.515
-74.557
-68.985
-62.558
-55.526
-48.458
-41.923
-36.473
-32.395
-29.575
-27.723
-26.592
-25.774
-24.891
-23.707
-22.012
-19.775
-17.211
-14.686
-12.494
-10.861
-9.893
-9.545
-9.755
-10.445
-11.467
-12.618
-13.744
-14.731
-15.51
-16.093
-16.49
-16.691
-16.693
-16.487
-16.061
-15.424
-14.591
-13.576
-12.4
-11.077
-9.617
-8.038
-6.359
-4.596
-2.768
-0.883
1.05
3.012
4.973
6.893
8.743
10.51
12.188
13.78
15.288
16.712
18.057
19.335
20.559
21.738
22.88
23.988
25.07
26.14
27.216
28.32
29.472
30.682
31.963
33.324
34.775
36.324
37.976
39.735
41.604
43.59
45.699
47.942
50.325
52.854
55.532
58.365
61.354
64.505
67.821
71.304
74.958
78.786
82.792
86.978
91.346
95.899
100.636
105.557
110.661
115.944
121.406
127.045
132.862
138.855
145.016
151.337
157.807
164.41
171.13
177.946
184.831
191.759
198.704
205.646
212.567
219.449
226.268
232.999
239.613
246.085
252.403
258.555
264.53
270.327
275.947
281.405
286.731
291.948
297.066
302.084
306.984
311.75
316.371
320.834
325.129
329.231
333.106
336.718
340.035
343.016
345.607
347.731
349.282
350.171
350.333
349.722
348.316
346.1
343.051
339.153
334.402
328.807
322.384
315.151
307.109
298.27
288.673
278.391
267.536
256.214
244.507
232.489
220.216
207.747
195.151
182.499
169.846
157.243
144.752
132.445
120.418
108.776
97.593
86.906
76.723
67.046
57.887
49.265
41.193
33.676
26.708
20.277
14.383
9.025
4.176
-0.204
-4.183
-7.851
-11.271
-14.484
-17.518
-20.389
-23.119
-25.733
-28.244
-30.655
-32.967
-35.182
-37.31
-39.362
-41.336
-43.218
-44.978
-46.577
-47.986
-49.195
-50.195
-50.987
-51.574
-51.96
-52.156
-52.186
-52.068
-51.821
-51.457
-50.986
-50.423
-49.789
-49.107
-48.404
-47.701
-47.014
-46.357
-45.741
-45.176
-44.668
-44.219
-43.826
-43.489
-43.207
-42.982
-42.814
-42.706
-42.654
-42.657
-42.712
-42.819
-42.973
-43.174
-43.417
-43.699
-44.019
-44.374
-44.761
-45.178
-45.622
-46.09
-46.577
-47.08
-47.595
-48.118
-48.645
-49.172
-49.697
-50.214
-50.723
-51.22
-51.702
-52.168
-52.616
-53.044
-53.451
-53.835
-54.196
-54.532
-54.844
-55.131
-55.391
-55.627
-55.836
-56.02
-56.18
-56.316
-56.429
-56.521
-56.592
-56.644
-56.679
-56.698
-56.703
-56.695
-56.678
-56.652
-56.619
-56.582
-56.543
-56.504
-56.466
-56.431
-56.402
-56.379
-56.364
-56.358
-56.362
-56.379
-56.407
-56.45
-56.506
-56.577
-56.664
-56.767
-56.886
-57.022
-57.175
-57.345
-57.532
-57.735
-57.955
-58.191
-58.442
-58.709
-58.989
-59.284
-59.59
-59.908
-60.236
-60.574
-60.919
-61.27
-61.626
-61.985
-62.347
-62.709
-63.071
-63.43
-63.787
-64.139
-64.486
-64.826
-65.159
-65.484
-65.799
-66.103
-66.395
-66.674
-66.939
-67.189
-67.423
-67.64
-67.839
-68.019
-68.18
-68.321
-68.442
-68.541
-68.619
-68.675
-68.71
-68.724
-68.718
-68.691
-68.645
-68.58
-68.497
-68.397
-68.281
-68.149
-68.003
-67.843
-67.671
-67.486
-67.292
-67.088
-66.876
-66.658
-66.434
-66.208
-65.98
-65.752
-65.526
-65.305
-65.089
-64.88
-64.681
-64.494
-64.319
-64.16
-64.016
-63.89
-63.782
-63.693
-63.624
-63.575
-63.546
-63.539
-63.551
-63.584
-63.637
-63.71
-63.802
-63.914
-64.043
-64.19
-64.353
-64.532
-64.725
-64.93
-65.147
-65.373
-65.607
-65.847
-66.091
-66.336
-66.581
-66.824
-67.061
-67.291
-67.512
-67.722
-67.919
-68.101
-68.266
-68.414
-68.543
-68.652
-68.741
-68.809
-68.857
-68.883
-68.887
-68.871
-68.833
-68.775
-68.696
-68.597
-68.479
-68.343
-68.19
-68.021
-67.837
-67.639
-67.43
-67.21
-66.982
-66.746
-66.506
-66.262
-66.018
-65.774
-65.532
-65.295
-65.065
-64.842
-64.628
-64.424
-64.231
-64.05
-63.882
-63.727
-63.585
-63.457
-63.344
-63.244
-63.158
-63.086
-63.028
-62.983
-62.951
-62.932
-62.924
-62.928
-62.943
-62.968
-63.003
-63.046
-63.098
-63.156
-63.22
-63.29
-63.363
-63.439
-63.518
-63.597
-63.677
-63.757
-63.836
-63.915
-63.994
-64.072
-64.15
-64.228
-64.306
-64.385
-64.465
-64.547
-64.63
-64.717
-64.807
-64.902
-65.002
-65.106
-65.217
-65.335
-65.459
-65.589
-65.726
-65.869
-66.019
-66.175
-66.338
-66.506
-66.68
-66.859
-67.042
-67.229
-67.417
-67.604
-67.789
-67.97
-68.142
-68.303
-68.45
-68.58
-68.69
-68.777
-68.837
-68.868
-68.864
-68.825
-68.744
-68.619
-68.445
-68.215
-67.926
-67.574
-67.156
-66.671
-66.113
-65.482
-64.775
-63.993
-63.134
-62.198
-61.179
-60.072
-58.878
-57.6
-56.246
-54.821
-53.33
-51.78
-50.179
-48.539
-46.869
-45.17
-43.44
-41.672
-39.869
-38.037
-36.19
-34.342
-32.499
-30.661
-28.826
-26.996
-25.177
-23.367
-21.558
-19.738
-17.906
-16.078
-14.286
-12.564
-10.932
-9.402
-7.981
-6.678
-5.508
-4.491
-3.645
-2.98
-2.508
-2.249
-2.232
-2.492
-3.046
-3.882
-4.972
-6.285
-7.805
-9.522
-11.428
-13.508
-15.745
-18.119
-20.618
-23.233
-25.948
-28.74
-31.574
-34.417
-37.246
-40.062
-42.875
-45.692
-48.509
-51.312
-54.081
-56.804
-59.463
-62.036
-64.496
-66.817
-68.974
-70.95
-72.728
-74.29
-75.616
-76.677
-77.444
-77.903
-78.054
-77.916
-77.526
-76.926
-76.15
-75.252
-74.289
-73.325
-72.436
-71.692
-71.149
-70.891
-71.02
-71.605
-72.668
-74.123
-75.745
-77.275
-78.46
-79.011
-78.604
-76.985
-74.046
-69.995
-65.402
-60.952
-57.266
-54.872
-54.269
-55.773
-59.32
-64.191
-68.894
-71.526
-70.24
-63.276
-48.767
-25.105
8.757
52.177
102.559
156.913
212.757
269.789
328.352
385.783
436.258
470.152
478.55
459.388
415.738
355.565
287.336
214.237
139.206
65.495
-3.114
-59.374
-99.895
-126.359
-141.565
-150.612
-155.82
-155.536
-149.372
-137.515
-121.552
-104.907
-89.24
-74.85
-61.97
-50.483
-40.711
-33.188
-27.678
-23.579
-20.709
-19.102
-18.787
-19.655
-21.054
-22.136
-22.584
-22.447
-21.758
-20.532
-18.73
-16.348
-13.751
-11.498
-9.866
-8.88
-8.436
-8.349
-8.511
-8.888
-9.342
-9.647
-9.665
-9.332
-8.663
-7.742
-6.622
-5.306
-3.801
-2.124
-0.302
1.613
3.566
5.526
7.466
9.368
11.226
13.03
14.778
16.485
18.172
19.86
21.561
23.269
24.964
26.621
28.23
29.791
31.315
32.814
34.295
35.763
37.227
38.696
40.17
41.641
43.098
44.531
45.938
47.328
48.713
50.11
51.535
53
54.518
56.097
57.742
59.453
61.23
63.077
65.003
67.022
69.149
71.395
73.772
76.297
78.978
81.82
84.822
87.971
91.261
94.693
98.271
102.008
105.908
109.967
114.181
118.543
123.048
127.693
132.466
137.34
142.302
147.347
152.484
157.737
163.117
168.615
174.221
179.917
185.693
191.555
197.501
203.523
209.617
215.772
221.997
228.319
234.749
241.282
247.902
254.571
261.275
268.029
274.841
281.719
288.657
295.631
302.622
309.62
316.603
323.545
330.4
337.097
343.572
349.775
355.656
361.175
366.265
370.831
374.785
378.051
380.571
382.304
383.209
383.241
382.365
380.565
377.838
374.203
369.686
364.313
358.117
351.143
343.459
335.156
326.324
317.044
307.376
297.377
287.109
276.638
266.034
255.355
244.657
233.997
223.421
212.974
202.695
192.611
182.732
173.059
163.59
154.331
145.302
136.535
128.054
119.874
111.996
104.419
97.122
90.11
83.395
76.919
70.639
64.518
58.501
52.659
47.089
41.753
36.614
31.769
27.265
23.225
19.829
16.904
14.256
11.908
9.829
7.901
6.084
4.155
1.848
-0.618
-3.019
-5.32
-7.405
-9.207
-10.735
-11.792
-12.174
-12.062
-11.626
-10.948
-10.172
-9.316
-8.361
-7.427
-6.619
-5.886
-5.185
-4.489
-3.743
-2.982
-2.244
-1.516
-0.794
-0.091
0.589
1.233
1.826
2.378
2.897
3.384
3.845
4.275
4.669
5.027
5.344
5.623
5.862
6.064
6.228
6.356
6.448
6.507
6.535
6.532
6.499
6.438
6.347
6.231
6.091
5.93
5.75
5.553
5.341
5.114
4.874
4.624
4.362
4.091
3.81
3.519
3.22
2.912
2.594
2.268
1.933
1.588
1.234
0.872
0.5
0.118
-0.273
-0.673
-1.083
-1.502
-1.932
-2.37
-2.818
-3.274
-3.739
-4.212
-4.693
-5.181
-5.676
-6.177
-6.685
-7.199
-7.718
-8.242
-8.77
-9.301
-9.835
-10.37
-10.905
-11.438
-11.968
-12.494
-13.015
-13.528
-14.034
-14.529
-15.014
-15.487
-15.947
-16.393
-16.825
-17.241
-17.642
-18.027
-18.397
-18.75
-19.088
-19.41
-19.717
-20.009
-20.286
-20.549
-20.797
-21.031
-21.251
-21.458
-21.65
-21.83
-21.997
-22.152
-22.295
-22.428
-22.552
-22.666
-22.773
-22.873
-22.967
-23.057
-23.144
-23.228
-23.311
-23.394
-23.477
-23.561
-23.647
-23.735
-23.826
-23.92
-24.016
-24.115
-24.217
-24.321
-24.428
-24.539
-24.652
-24.77
-24.891
-25.017
-25.147
-25.284
-25.426
-25.574
-25.73
-25.893
-26.063
-26.24
-26.426
-26.618
-26.819
-27.027
-27.242
-27.464
-27.692
-27.926
-28.165
-28.41
-28.659
-28.914
-29.173
-29.438
-29.707
-29.983
-30.264
-30.551
-30.845
-31.145
-31.451
-31.764
-32.084
-32.409
-32.74
-33.076
-33.417
-33.763
-34.112
-34.464
-34.82
-35.177
-35.537
-35.899
-36.262
-36.627
-36.994
-37.364
-37.736
-38.111
-38.49
-38.873
-39.26
-39.651
-40.047
-40.447
-40.852
-41.26
-41.671
-42.085
-42.501
-42.919
-43.338
-43.757
-44.177
-44.596
-45.015
-45.433
-45.85
-46.265
-46.678
-47.091
-47.501
-47.909
-48.316
-48.72
-49.122
-49.52
-49.915
-50.305
-50.69
-51.069
-51.44
-51.803
-52.158
-52.503
-52.838
-53.164
-53.479
-53.785
-54.081
-54.369
-54.648
-54.92
-55.185
-55.443
-55.697
-55.946
-56.19
-56.431
-56.669
-56.905
-57.14
-57.373
-57.606
-57.839
-58.072
-58.306
-58.541
-58.778
-59.017
-59.259
-59.505
-59.755
-60.011
-60.273
-60.542
-60.82
-61.106
-61.402
-61.706
-62.02
-62.342
-62.673
-63.012
-63.359
-63.713
-64.075
-64.446
-64.826
-65.216
-65.616
-66.027
-66.449
-66.883
-67.328
-67.784
-68.251
-68.729
-69.219
-69.722
-70.24
-70.774
-71.328
-71.904
-72.502
-73.127
-73.779
-74.459
-75.166
-75.901
-76.666
-77.466
-78.302
-79.175
-80.084
-81.027
-82
-82.997
-84.01
-85.023
-86.022
-86.992
-87.921
-88.806
-89.642
-90.425
-91.152
-91.819
-92.428
-92.99
-93.517
-94.02
-94.509
-94.994
-95.493
-96.041
-96.665
-97.388
-98.232
-99.201
-100.299
-101.53
-102.884
-104.343
-105.872
-107.415
-108.91
-110.303
-111.544
-112.588
-113.386
-113.867
-113.97
-113.648
-112.861
-111.582
-109.773
-107.384
-104.382
-100.777
-96.629
-92.04
-87.104
-81.887
-76.457
-70.935
-65.48
-60.188
-55.052
-50.005
-44.982
