-86.225
-99.157
-107.494
-111.307
-111.394
-108.739
-104.458
-99.957
-96.255
-93.808
-92.861
-93.316
-94.84
-97.14
-99.774
-102.177
-104.025
-105.175
-105.576
-105.32
-104.483
-103.074
-101.166
-98.842
-96.14
-93.086
-89.68
-85.9
-81.764
-77.311
-72.589
-67.639
-62.483
-57.127
-51.577
-45.839
-39.919
-33.819
-27.531
-21.051
-14.382
-7.529
-0.497
6.717
14.127
21.751
29.601
37.681
45.986
54.504
63.222
72.118
81.16
90.307
99.516
108.758
118.011
127.263
136.49
145.66
154.732
163.665
172.436
181.035
189.451
197.678
205.724
213.61
221.391
229.132
236.87
244.613
252.341
260.021
267.635
275.172
282.619
289.953
297.127
304.084
310.782
317.158
323.117
328.525
333.195
336.937
339.615
341.132
341.426
340.449
338.136
334.427
329.28
322.665
314.563
304.954
293.802
281.113
266.963
251.479
234.865
217.322
199.007
180.065
160.636
140.859
120.894
100.905
81.035
61.447
42.333
23.89
6.336
-10.162
-25.515
-39.672
-52.641
-64.436
-75.052
-84.502
-92.822
-100.051
-106.245
-111.47
-115.788
-119.305
-122.178
-124.561
-126.62
-128.487
-130.239
-131.938
-133.626
-135.33
-137.073
-138.865
-140.693
-142.548
-144.429
-146.318
-148.199
-150.023
-151.708
-153.182
-154.386
-155.272
-155.825
-156.029
-155.878
-155.379
-154.554
-153.429
-152.04
-150.412
-148.564
-146.524
-144.32
-141.994
-139.597
-137.171
-134.747
-132.35
-130.001
-127.715
-125.505
-123.376
-121.322
-119.34
-117.426
-115.578
-113.8
-112.09
-110.443
-108.856
-107.321
-105.835
-104.396
-103
-101.645
-100.328
-99.047
-97.803
-96.597
-95.429
-94.296
-93.196
-92.126
-91.082
-90.062
-89.063
-88.08
-87.111
-86.153
-85.204
-84.263
-83.328
-82.396
-81.466
-80.537
-79.606
-78.672
-77.733
-76.789
-75.838
-74.878
-73.909
-72.93
-71.938
-70.932
-69.91
-68.871
-67.814
-66.737
-65.64
-64.52
-63.379
-62.214
-61.028
-59.818
-58.586
-57.331
-56.055
-54.756
-53.435
-52.092
-50.728
-49.341
-47.934
-46.505
-45.055
-43.585
-42.097
-40.59
-39.065
-37.525
-35.971
-34.403
-32.823
-31.233
-29.634
-28.029
-26.42
-24.808
-23.195
-21.584
-19.977
-18.374
-16.778
-15.189
-13.609
-12.039
-10.481
-8.934
-7.402
-5.885
-4.385
-2.905
-1.445
-0.008
1.404
2.789
4.146
5.472
6.767
8.031
9.26
10.45
11.599
12.703
13.762
14.78
15.749
16.659
17.524
18.35
19.144
19.917
20.656
21.335
21.971
22.581
23.118
23.546
23.839
23.952
23.92
23.81
23.582
23.17
22.752
22.539
22.407
22.369
22.465
22.244
22.933
25.723
28.917
32.001
31.854
24.737
14.793
4.785
-1.174
2.563
11.006
19.926
26.425
25.715
21.225
16.432
12.109
10.378
10.012
9.432
8.942
8.342
7.739
7.453
7.274
7.034
6.788
6.545
6.285
6.007
5.722
5.433
5.165
4.95
4.77
4.604
4.455
4.316
4.183
4.053
3.917
3.766
3.598
3.41
3.197
2.955
2.681
2.37
2.019
1.625
1.185
0.697
0.159
-0.429
-1.069
-1.761
-2.503
-3.294
-4.132
-5.013
-5.935
-6.892
-7.879
-8.891
-9.921
-10.963
-12.009
-13.052
-14.084
-15.096
-16.08
-17.028
-17.933
-18.786
-19.581
-20.31
-20.967
-21.547
-22.045
-22.455
-22.776
-23.003
-23.135
-23.171
-23.109
-22.951
-22.695
-22.346
-21.905
-21.375
-20.762
-20.071
-19.307
-18.477
-17.589
-16.652
-15.672
-14.661
-13.628
-12.583
-11.538
-10.504
-9.492
-8.513
-7.58
-6.703
-5.893
-5.162
-4.519
-3.972
-3.531
-3.204
-2.998
-2.921
-2.977
-3.171
-3.509
-3.997
-4.64
-5.443
-6.409
-7.543
-8.846
-10.323
-11.972
-13.791
-15.775
-17.918
-20.216
-22.663
-25.257
-27.991
-30.857
-33.847
-36.954
-40.166
-43.471
-46.848
-50.28
-53.749
-57.247
-60.775
-64.335
-67.924
-71.54
-75.178
-78.824
-82.46
-86.06
-89.58
-92.98
-96.224
-99.281
-102.138
-104.774
-107.162
-109.269
-111.044
-112.437
-113.413
-113.94
-114.002
-113.629
-112.861
-111.771
-110.471
-109.044
-107.574
-106.148
-104.81
-103.637
-102.752
-102.259
-102.337
-103.211
-104.952
-107.596
-111.04
-114.791
-118.272
-120.922
-121.969
-120.832
-117.392
-111.526
-103.867
-96.228
-90.417
-88.264
-90.334
-94.939
-100.325
-106.346
-116.265
-134.112
-158.903
-182.152
-186.432
-155.503
-85.001
18.321
137.149
256.659
372.119
481.308
581.251
659.822
699.825
691.143
634.501
544.974
441.249
335.614
233.871
134.642
37.194
-54.102
-133.047
-193.382
-232.297
-250.888
-251.991
-238.998
-214.905
-183.18
-148.134
-113.738
-82.838
-57.279
-37.643
-24.037
-16.891
-15.803
-19.258
-25.463
-32.663
-39.271
-44.573
-48.188
-49.297
-47.573
-43.354
-37.213
-30.135
-23.251
-17.058
-11.776
-7.786
-5.177
-3.857
-3.692
-4.189
-4.725
-4.999
-4.859
-4.205
-3.089
-1.517
0.546
3.011
5.755
8.71
11.814
15.054
18.452
21.982
25.588
29.207
32.763
36.208
39.524
42.695
45.714
48.578
51.283
53.841
56.274
58.599
60.828
62.966
65.02
67.002
68.936
70.846
72.761
74.705
76.699
78.763
80.914
83.17
85.553
88.081
90.769
93.631
96.676
99.923
103.401
107.121
111.075
115.261
119.67
124.313
129.238
134.461
139.956
145.757
151.948
158.597
165.779
173.51
181.697
190.307
199.443
208.979
218.497
227.886
237.237
246.456
255.918
264.79
270.539
273.646
276.372
282.417
298.809
325.118
354.18
378.893
389.201
384.374
373.917
365.197
366.163
378.317
394.629
410.761
423.773
432.745
440.564
448.558
456.629
464.877
472.85
480.401
487.863
495.286
502.515
509.42
515.842
521.544
526.28
529.829
531.975
532.565
531.517
528.744
524.155
517.693
509.327
499.027
486.809
472.708
456.797
439.235
420.245
400.1
379.086
357.461
335.468
313.355
291.369
269.725
248.618
228.21
208.649
190.111
172.749
156.679
141.974
128.629
116.586
105.754
96.035
87.318
79.489
72.41
65.93
59.939
54.35
49.094
44.105
39.279
34.52
29.761
24.963
20.121
15.254
10.384
5.536
0.761
-3.883
-8.324
-12.48
-16.304
-19.774
-22.877
-25.603
-27.927
-29.829
-31.309
-32.384
-33.077
-33.41
-33.408
-33.092
-32.506
-31.698
-30.722
-29.635
-28.477
-27.277
-26.063
-24.856
-23.678
-22.548
-21.476
-20.461
-19.51
-18.628
-17.822
-17.1
-16.46
-15.898
-15.409
-14.987
-14.629
-14.331
-14.089
-13.899
-13.759
-13.667
-13.623
-13.628
-13.681
-13.779
-13.92
-14.101
-14.318
-14.57
-14.853
-15.163
-15.499
-15.858
-16.238
-16.639
-17.059
-17.496
-17.951
-18.42
-18.905
-19.404
-19.916
-20.441
-20.978
-21.528
-22.089
-22.661
-23.245
-23.84
-24.444
-25.058
-25.681
-26.31
-26.944
-27.581
-28.22
-28.858
-29.492
-30.12
-30.739
-31.346
-31.938
-32.512
-33.064
-33.591
-34.09
-34.559
-34.993
-35.392
-35.751
-36.07
-36.346
-36.577
-36.762
-36.9
-36.99
-37.032
-37.026
-36.972
-36.871
-36.723
-36.53
-36.295
-36.019
-35.704
-35.355
-34.973
-34.564
-34.13
-33.678
-33.21
-32.733
-32.253
-31.774
-31.303
-30.845
-30.406
-29.99
-29.604
-29.251
-28.935
-28.662
-28.435
-28.257
-28.131
-28.059
-28.045
-28.09
-28.196
-28.363
-28.593
-28.886
-29.242
-29.661
-30.142
-30.684
-31.286
-31.947
-32.664
-33.435
-34.257
-35.126
-36.04
-36.994
-37.984
-39.005
-40.052
-41.12
-42.205
-43.301
-44.405
-45.511
-46.615
-47.714
-48.803
-49.879
-50.939
-51.979
-52.997
-53.99
-54.954
-55.889
-56.791
-57.66
-58.492
-59.287
-60.043
-60.759
-61.434
-62.067
-62.657
-63.203
-63.705
-64.165
-64.582
-64.957
-65.291
-65.587
-65.846
-66.071
-66.264
-66.427
-66.562
-66.673
-66.762
-66.831
-66.883
-66.919
-66.944
-66.958
-66.965
-66.966
-66.965
-66.964
-66.965
-66.97
-66.983
-67.005
-67.04
-67.09
-67.158
-67.248
-67.361
-67.501
-67.671
-67.874
-68.111
-68.386
-68.699
-69.052
-69.447
-69.884
-70.364
-70.887
-71.453
-72.063
-72.715
-73.41
-74.145
-74.921
-75.736
-76.588
-77.474
-78.394
-79.343
-80.319
-81.319
-82.339
-83.375
-84.423
-85.477
-86.534
-87.586
-88.628
-89.653
-90.654
-91.624
-92.556
-93.442
-94.275
-95.047
-95.752
-96.382
-96.93
-97.39
-97.756
-98.021
-98.18
-98.227
-98.159
-97.97
-97.657
-97.218
-96.65
-95.951
-95.121
-94.159
-93.066
-91.843
-90.491
-89.015
-87.415
-85.699
-83.869
-81.934
-79.9
-77.775
-75.569
-73.291
-70.952
-68.563
-66.137
-63.684
-61.217
-58.75
-56.295
-53.865
-51.474
-49.134
-46.859
-44.662
-42.555
-40.551
-38.662
-36.898
-35.269
-33.787
-32.461
-31.298
-30.307
-29.496
-28.873
-28.445
-28.221
-28.206
-28.405
-28.823
-29.462
-30.324
-31.407
-32.706
-34.216
-35.929
-37.841
-39.947
-42.24
-44.71
-47.347
-50.141
-53.079
-56.152
-59.342
-62.629
-65.993
-69.422
-72.908
-76.454
-80.054
-83.7
-87.378
-91.069
-94.757
-98.422
-102.032
-105.539
-108.902
-112.079
-115.043
-117.779
-120.26
-122.449
-124.3
-125.757
-126.783
-127.36
-127.48
-127.151
-126.395
-125.253
-123.797
-122.127
-120.343
-118.555
-116.863
-115.363
-114.17
-113.377
-113.1
-113.517
-114.697
-116.59
-119.045
-121.707
-124.181
-126.268
-127.744
-128.178
-127.35
-125.305
-122.347
-119.392
-117.454
-116.784
-117.227
-119.11
-122.682
-127.481
-132.823
-135.741
-131.288
-118.252
-97.513
-70.934
-43.68
-14.296
24.349
76.212
145.766
229.884
316.457
398.549
470.556
528.168
571.141
591.744
579.422
529.035
438.847
316.779
178.438
39.337
-83.895
-178.891
-241.524
-274.133
-286.51
-288.635
-285.21
-276.004
-256.539
-225.056
-184.659
-141.24
-101.729
-70.257
-48.384
-36.546
-34.069
-39.613
-51.129
-65.579
-80.011
-92.506
-101.606
-106.426
-106.718
-102.683
-95.199
-85.848
-76.286
-67.569
-60.372
-55.014
-51.498
-49.766
-49.563
-50.323
-51.363
-52.218
-52.645
-52.577
-52.087
-51.201
-49.914
-48.28
-46.397
-44.344
-42.166
-39.872
-37.435
-34.854
-32.166
-29.421
-26.681
-24.001
-21.402
-18.896
-16.492
-14.191
-11.997
-9.908
-7.91
-5.982
-4.11
-2.28
-0.483
1.295
3.078
4.894
6.773
8.745
10.833
13.055
15.433
17.984
20.727
23.676
26.844
30.239
33.874
37.762
41.915
46.349
51.072
56.095
61.425
67.071
73.04
79.341
85.976
92.946
100.253
107.9
115.891
124.235
132.93
141.966
151.328
160.996
170.944
181.141
191.547
202.107
212.771
223.493
234.236
244.974
255.671
266.286
276.769
287.075
297.174
307.051
316.698
326.109
335.295
344.281
353.122
361.897
370.662
379.443
388.244
397.044
405.829
414.599
423.341
432.028
440.605
448.993
457.117
464.904
472.24
478.981
484.928
489.856
493.584
495.978
496.941
496.407
494.3
490.538
485.065
477.872
468.975
458.415
446.227
432.442
417.148
400.499
382.709
364.029
344.676
324.827
304.639
284.27
263.893
243.697
223.856
204.492
185.717
167.638
150.372
134.054
118.769
104.536
91.323
79.076
67.751
57.327
47.784
39.07
31.117
23.836
17.133
10.955
5.249
-0.046
-5.002
-9.711
-14.242
-18.618
-22.838
-26.897
-30.791
-34.531
-38.123
-41.545
-44.765
-47.742
-50.43
-52.807
-54.861
-56.575
-57.933
-58.916
-59.511
-59.732
-59.605
-59.157
-58.412
-57.394
-56.125
-54.647
-53.006
-51.247
-49.424
-47.574
-45.729
-43.922
-42.179
-40.525
-38.981
-37.556
-36.254
-35.08
-34.039
-33.133
-32.368
-31.74
-31.244
-30.872
-30.617
-30.471
-30.429
-30.483
-30.624
-30.848
-31.146
-31.515
-31.949
-32.441
-32.984
-33.569
-34.186
-34.824
-35.476
-36.131
-36.779
-37.411
-38.019
-38.596
-39.135
-39.63
-40.077
-40.47
-40.806
-41.084
-41.301
-41.458
-41.556
-41.595
-41.578
-41.509
-41.391
-41.228
-41.023
-40.782
-40.508
-40.207
-39.881
-39.538
-39.182
-38.818
-38.452
-38.09
-37.737
-37.4
-37.084
-36.795
-36.537
-36.316
-36.136
-36.003
-35.919
-35.888
-35.913
-35.996
-36.14
-36.344
-36.609
-36.934
-37.318
-37.759
-38.254
-38.803
-39.4
-40.045
-40.734
-41.464
-42.232
-43.036
-43.872
-44.736
-45.627
-46.54
-47.472
-48.419
-49.38
-50.349
-51.325
-52.305
-53.284
-54.261
-55.233
-56.195
-57.146
-58.082
-59
-59.898
-60.775
-61.629
-62.459
-63.264
-64.045
-64.802
-65.534
-66.242
-66.926
-67.585
-68.221
-68.832
-69.418
-69.979
-70.515
-71.025
-71.509
-71.967
-72.398
-72.801
-73.176
-73.521
-73.837
-74.123
-74.378
-74.602
-74.796
-74.96
-75.096
-75.204
-75.286
-75.343
-75.376
-75.384
-75.37
-75.332
-75.271
-75.187
-75.081
-74.953
-74.805
-74.636
-74.448
-74.244
-74.023
-73.789
-73.542
-73.285
-73.021
-72.751
-72.478
-72.206
-71.937
-71.675
-71.423
-71.183
-70.959
-70.752
-70.564
-70.396
-70.249
-70.124
-70.021
-69.942
-69.886
-69.855
-69.85
-69.872
-69.923
-70.004
-70.116
-70.259
-70.436
-70.645
-70.889
-71.168
-71.482
-71.831
-72.216
-72.636
-73.092
-73.581
-74.104
-74.657
-75.24
-75.849
-76.483
-77.14
-77.816
-78.512
-79.224
-79.952
-80.694
-81.449
-82.215
-82.991
-83.773
-84.56
-85.347
-86.132
-86.911
-87.679
-88.432
-89.166
-89.875
-90.554
-91.198
-91.801
-92.357
-92.86
-93.303
-93.682
-93.989
-94.221
-94.372
-94.437
-94.414
-94.298
-94.086
-93.775
-93.362
-92.844
-92.219
-91.483
-90.636
-89.676
-88.602
-87.414
-86.113
-84.701
-83.18
-81.552
-79.823
-77.996
-76.078
-74.075
-71.994
-69.844
-67.634
-65.374
-63.076
-60.75
-58.41
-56.065
-53.73
-51.417
-49.138
-46.905
-44.73
-42.625
-40.603
-38.675
-36.854
-35.151
-33.577
-32.144
-30.863
-29.744
-28.796
-28.026
-27.443
-27.056
-26.873
-26.902
-27.15
-27.621
-28.322
-29.254
-30.421
-31.821
-33.447
-35.294
-37.353
-39.619
-42.083
-44.738
-47.573
-50.577
-53.738
-57.044
-60.48
-64.028
-67.663
-71.366
-75.12
-78.911
-82.738
-86.595
-90.471
-94.356
-98.235
-102.089
-105.896
-109.623
-113.228
-116.669
-119.909
-122.92
-125.685
-128.175
-130.357
-132.193
-133.637
-134.651
-135.205
-135.274
-134.865
-133.996
-132.702
-131.045
-129.091
-126.913
-124.616
-122.291
-120.031
-117.963
-116.173
-114.791
-114.038
-113.981
-114.577
-115.666
-116.793
-117.492
-117.457
-116.194
-113.139
-108.234
-101.69
-94.185
-87.243
-82.162
-79.827
-81.373
-87.568
-97.986
-111.497
-125.893
-137.423
-142.593
-138.342
-121.178
-88.514
-39.792
24.203
100.966
185.678
273.014
357.261
431.407
488.971
525.592
538.221
525.384
488.101
428.759
351.259
261.878
167.506
73.892
-13.581
-89.976
-151.967
-197.447
-225.855
-238.903
-239.305
-229.455
-212.11
-190.471
-167.13
-144.12
-122.854
-103.699
-86.73
-72.414
-60.838
-51.562
-44.435
-39.575
-37.015
-36.865
-38.839
-41.968
-45.587
-49.45
-53.089
-55.9
-57.486
-57.552
-56.285
-54.482
-52.626
-50.842
-49.321
-48.191
-47.503
-47.333
-47.501
-47.528
-47.142
-46.253
-44.813
-42.899
-40.57
-37.822
-34.732
-31.44
-28.039
-24.601
-21.169
-17.738
-14.331
-10.984
-7.719
-4.563
-1.53
1.386
4.185
6.875
9.47
11.979
14.41
16.774
19.076
21.327
23.536
25.712
27.869
30.021
32.183
34.379
36.626
38.942
41.342
43.841
46.451
49.186
52.065
55.104
58.321
61.734
65.357
69.208
73.305
77.666
82.307
87.239
92.474
98.023
103.902
110.126
116.712
123.672
131.005
138.711
146.786
155.216
163.988
173.072
182.428
192.02
201.817
211.788
221.91
232.148
242.459
252.801
263.136
273.431
283.672
293.849
303.951
313.99
323.992
333.994
344.05
354.191
364.421
374.733
385.101
395.497
405.903
416.275
426.552
436.662
446.511
455.993
465.001
473.389
480.982
487.599
493.046
497.163
499.84
500.991
500.557
498.5
494.8
489.467
482.552
474.125
464.265
453.069
440.637
427.104
412.644
397.44
381.683
365.552
349.183
332.689
316.171
299.706
283.342
267.111
251.016
235.036
219.173
203.437
187.848
172.437
157.218
142.194
127.364
112.731
98.307
84.129
70.235
56.669
43.505
30.82
18.707
7.283
-3.367
-13.198
-22.188
-30.359
-37.752
-44.39
-50.299
-55.508
-60.039
-63.926
-67.212
-69.923
-72.11
-73.832
-75.161
-76.195
-77.02
-77.682
-78.211
-78.605
-78.833
-78.89
-78.772
-78.469
-77.99
-77.344
-76.54
-75.606
-74.57
-73.445
-72.238
-70.94
-69.542
-68.053
-66.493
-64.889
-63.284
-61.708
-60.187
-58.753
-57.426
-56.22
-55.144
-54.198
-53.372
-52.664
-52.075
-51.605
-51.261
-51.042
-50.942
-50.958
-51.081
-51.304
-51.618
-52.012
-52.475
-52.999
-53.577
-54.203
-54.875
-55.588
-56.337
-57.116
-57.922
-58.746
-59.585
-60.432
-61.28
-62.122
-62.955
-63.774
-64.576
-65.357
-66.116
-66.849
-67.556
-68.234
-68.881
-69.497
-70.08
-70.628
-71.142
-71.621
-72.063
-72.471
-72.843
-73.182
-73.487
-73.76
-74.002
-74.216
-74.401
-74.56
-74.694
-74.804
-74.893
-74.96
-75.009
-75.041
-75.057
-75.06
-75.051
-75.032
-75.004
-74.969
-74.929
-74.885
-74.839
-74.792
-74.747
-74.704
-74.667
-74.636
-74.613
-74.601
-74.6
-74.613
-74.639
-74.681
-74.738
-74.81
-74.897
-74.998
-75.113
-75.24
-75.378
-75.525
-75.68
-75.842
-76.01
-76.181
-76.355
-76.529
-76.704
-76.875
-77.043
-77.205
-77.36
-77.506
-77.642
-77.765
-77.875
-77.969
-78.046
-78.104
-78.142
-78.156
-78.145
-78.108
-78.043
-77.95
-77.827
-77.675
-77.494
-77.284
-77.049
-76.787
-76.503
-76.197
-75.871
-75.527
-75.169
-74.797
-74.414
-74.022
-73.625
-73.223
-72.82
-72.417
-72.016
-71.62
-71.23
-70.846
-70.471
-70.106
-69.753
-69.412
-69.086
-68.776
-68.484
-68.212
-67.961
-67.733
-67.527
-67.346
-67.188
-67.053
-66.942
-66.853
-66.786
-66.739
-66.712
-66.704
-66.714
-66.739
-66.78
-66.833
-66.899
-66.976
-67.063
-67.159
-67.264
-67.379
-67.503
-67.637
-67.783
-67.941
-68.111
-68.296
-68.494
-68.708
-68.938
-69.185
-69.448
-69.729
-70.029
-70.348
-70.687
-71.046
-71.427
-71.829
-72.253
-72.699
-73.167
-73.657
-74.169
-74.702
-75.256
-75.83
-76.424
-77.034
-77.66
-78.298
-78.946
-79.599
-80.253
-80.904
-81.545
-82.172
-82.777
-83.356
-83.901
-84.406
-84.863
-85.267
-85.611
-85.888
-86.092
-86.216
-86.254
-86.202
-86.053
-85.803
-85.448
-84.984
-84.407
-83.714
-82.903
-81.972
-80.92
-79.747
-78.452
-77.037
-75.503
-73.855
-72.094
-70.226
-68.255
-66.189
-64.034
-61.798
-59.491
-57.122
-54.702
-52.242
-49.755
-47.25
-44.742
-42.242
-39.763
-37.317
-34.917
-32.575
-30.303
-28.113
-26.017
-24.026
-22.153
-20.406
-18.796
-17.332
-16.024
-14.879
-13.904
-13.107
-12.491
-12.065
-11.834
-11.804
-11.98
-12.366
-12.963
-13.776
-14.804
-16.045
-17.494
-19.145
-20.989
-23.018
-25.228
-27.609
-30.154
-32.852
-35.693
-38.668
-41.764
-44.967
-48.256
-51.61
-55.014
-58.457
-61.935
-65.444
-68.976
-72.524
-76.079
-79.626
-83.146
-86.61
-89.976
-93.204
-96.257
-99.105
-101.73
-104.108
-106.205
-107.988
-109.414
-110.447
-111.066
-111.241
-110.951
-110.218
-109.081
-107.604
-105.888
-103.996
-102
-100.006
-98.102
-96.401
-95.042
-94.102
-93.705
-94.059
-95.21
-97.105
-99.565
-102.074
-104.135
-105.442
-105.466
-103.634
-99.898
-94.409
-87.842
-81.766
-77.365
-75.331
-76.699
-82.169
-91.365
-103.392
-116.082
-125.561
-128.681
-122.98
-105.188
-72.596
-24.279
39.954
116.952
199.365
282.689
363.625
439.265
510.579
571.563
610.346
617.014
581.094
504.01
399.997
283.096
168.921
66.354
-25.071
-103.469
-167.107
-214.361
-241.767
-249.637
-241.3
-220.752
-192.927
-162.955
-135.013
-111.802
-94.743
-83.983
-78.659
-77.546
-79.255
-81.866
-83.468
-83.1
-80.502
-75.916
-70.014
-63.394
-56.537
-50.124
-44.84
-40.992
-38.627
-37.577
-37.489
-38.109
-39.261
-40.708
-42.229
-43.63
-44.715
-45.385
-45.616
-45.375
-44.646
-43.428
-41.708
-39.513
-36.911
-33.958
-30.718
-27.248
-23.589
-19.794
-15.927
-12.05
-8.235
-4.534
-0.976
2.416
5.625
8.642
11.458
14.079
16.525
18.815
20.963
22.982
24.879
26.671
28.376
30.017
31.615
33.187
34.752
36.326
37.929
39.58
41.295
43.089
44.975
46.972
49.097
51.372
53.816
56.451
59.295
62.368
65.689
69.279
73.156
77.335
81.832
86.665
91.851
97.417
103.378
109.742
116.511
123.681
131.242
139.179
147.467
156.067
164.943
174.06
183.389
192.912
202.607
212.44
222.369
232.343
242.319
252.273
262.189
272.051
281.86
291.629
301.397
311.24
321.222
331.38
341.726
352.234
362.877
373.64
384.505
395.446
406.425
417.373
428.214
438.881
449.277
459.261
468.641
477.158
484.561
490.655
495.283
498.332
499.701
499.284
497.006
492.829
486.739
478.744
468.852
457.053
443.382
427.954
410.962
392.677
373.386
353.332
332.735
311.81
290.773
269.833
249.161
228.874
209.077
189.88
171.416
153.848
137.3
121.82
107.395
93.955
81.417
69.708
58.752
48.448
38.678
29.348
20.402
11.827
3.62
-4.246
-11.828
-19.204
-26.43
-33.521
-40.47
-47.252
-53.84
-60.203
-66.292
-72.034
-77.341
-82.16
-86.464
-90.258
-93.556
-96.359
-98.66
-100.449
-101.734
-102.535
-102.872
-102.77
-102.249
-101.342
-100.097
-98.578
-96.855
-94.98
-92.997
-90.938
-88.83
-86.704
-84.589
-82.506
-80.47
-78.497
-76.603
-74.808
-73.13
-71.585
-70.177
-68.91
-67.784
-66.799
-65.958
-65.259
-64.701
-64.283
-64.002
-63.859
-63.853
-63.983
-64.241
-64.623
-65.119
-65.721
-66.421
-67.207
-68.068
-68.993
-69.97
-70.991
-72.044
-73.119
-74.206
-75.296
-76.379
-77.446
-78.488
-79.497
-80.465
-81.384
-82.248
-83.052
-83.791
-84.461
-85.06
-85.585
-86.037
-86.414
-86.716
-86.945
-87.102
-87.188
-87.206
-87.16
-87.05
-86.882
-86.66
-86.392
-86.083
-85.743
-85.378
-84.988
-84.583
-84.168
-83.731
-83.265
-82.769
-82.233
-81.669
-81.108
-80.559
-80.044
-79.639
-79.393
-79.323
-79.449
-79.73
-80.058
-80.361
-80.57
-80.421
-79.682
-78.52
-77.016
-75.181
-73.661
-71.741
-68.636
-66.052
-64.313
-66.175
-76.045
-91.614
-110.948
-128.576
-132.935
-120.932
-91.652
-48.838
-9.037
14.816
12.29
-22.093
-75.863
-131.096
-168.606
-173.263
-147.508
-104.766
-63.539
-39.34
-35.562
-46.624
-62.155
-74.117
-80.252
-81.796
-81.879
-82.139
-82.394
-82.33
-81.616
-80.417
-79.239
-78.281
-77.551
-77.076
-76.838
-76.796
-76.895
-77.04
-77.159
-77.247
-77.33
-77.42
-77.518
-77.626
-77.743
-77.879
-78.043
-78.232
-78.441
-78.666
-78.906
-79.159
-79.424
-79.699
-79.983
-80.273
-80.565
-80.859
-81.152
-81.442
-81.726
-82.003
-82.27
-82.525
-82.766
-82.992
-83.201
-83.392
-83.564
-83.716
-83.847
-83.957
-84.045
-84.112
-84.157
-84.181
-84.183
-84.165
-84.127
-84.069
-83.994
-83.902
-83.795
-83.675
-83.543
-83.401
-83.252
-83.096
-82.937
-82.775
-82.614
-82.454
-82.299
-82.149
-82.008
-81.876
-81.756
-81.65
-81.559
-81.484
-81.427
-81.39
-81.372
-81.374
-81.397
-81.441
-81.506
-81.591
-81.697
-81.822
-81.966
-82.128
-82.307
-82.502
-82.71
-82.932
-83.163
-83.402
-83.648
-83.896
-84.146
-84.393
-84.635
-84.869
-85.091
-85.298
-85.487
-85.652
-85.789
-85.895
-85.965
-85.994
-85.978
-85.912
-85.792
-85.613
-85.373
-85.065
-84.688
-84.236
-83.706
-83.096
-82.401
-81.618
-80.747
-79.783
-78.727
-77.575
-76.328
-74.986
-73.548
-72.014
-70.386
-68.665
-66.853
-64.954
-62.969
-60.903
-58.761
-56.549
-54.273
-51.94
-49.557
-47.133
-44.676
-42.195
-39.7
-37.201
-34.709
-32.232
-29.784
-27.374
-25.016
-22.722
-20.502
-18.368
-16.332
-14.405
-12.599
-10.923
-9.387
-8.001
-6.775
-5.721
-4.85
-4.171
-3.692
-3.425
-3.376
-3.552
-3.957
-4.591
-5.451
-6.536
-7.844
-9.372
-11.116
-13.069
-15.222
-17.568
-20.098
-22.799
-25.655
-28.646
-31.75
-34.952
-38.241
-41.612
-45.061
-48.578
-52.155
-55.78
-59.437
-63.108
-66.766
-70.371
-73.88
-77.257
-80.466
-83.48
-86.264
-88.78
-90.981
-92.816
-94.242
-95.218
-95.711
-95.72
-95.261
-94.37
-93.106
-91.524
-89.694
-87.725
-85.737
-83.85
-82.177
-80.782
-79.777
-79.394
-79.773
-80.917
-82.649
-84.537
-86.203
-87.47
-87.991
-87.183
-84.74
-80.726
-75.781
-71.235
-68.041
-66.778
-68.495
-74.324
-84.837
-98.208
-110.031
-116.109
-114.187
-107.077
-99.821
-91.41
-76.327
-44.293
16.854
108.111
223.85
355.333
485.74
601.24
688.528
730.727
721.522
661.272
555.756
421.748
274.491
128.201
-0.36
-101.505
-170.356
-208.365
-227.289
-237.981
-246.329
-252.895
-251.352
-237.427
-212.018
-178.978
-144.654
-112.903
-84.782
-61.111
-42.205
-28.775
-21.578
-20.102
-23.023
-29.287
-37.611
-46.403
-54.467
-60.482
-63.413
-63.127
-59.984
-54.49
-47.551
-40.291
-33.443
-27.673
-23.436
-20.73
-19.425
-19.25
-19.693
-20.199
-20.437
-20.213
-19.455
-18.229
-16.563
-14.501
-12.151
-9.621
-6.989
-4.284
-1.505
1.362
4.296
7.242
10.144
12.957
15.661
18.249
20.722
23.077
25.316
27.451
29.502
31.485
33.409
35.279
37.096
38.873
40.628
42.384
44.163
45.988
47.878
49.849
51.917
54.095
56.395
58.826
61.398
64.121
67.011
70.083
73.352
76.831
80.535
84.476
88.665
93.116
97.838
102.839
108.127
113.716
119.62
125.857
132.441
139.377
146.665
154.299
162.266
170.546
179.112
187.921
196.935
206.117
215.436
224.873
234.405
244.005
253.635
263.252
272.814
282.303
291.706
301.018
310.247
319.415
328.565
337.776
347.121
356.646
366.372
376.284
386.35
396.541
406.827
417.18
427.562
437.9
448.105
458.094
467.763
476.986
485.594
493.356
500.03
505.42
509.381
511.818
512.678
511.905
509.448
505.275
499.374
491.761
482.465
471.502
458.887
444.667
428.96
411.968
393.941
375.089
355.584
335.56
315.129
294.415
273.559
252.679
231.881
211.269
190.968
171.143
151.997
133.707
116.38
100.048
84.688
70.292
56.876
44.461
33.064
22.675
13.269
4.829
-2.645
-9.181
-14.848
-19.763
-24.102
-28.024
-31.635
-35.005
-38.165
-41.147
-43.998
-46.752
-49.424
-52.015
-54.524
-56.962
-59.357
-61.718
-64.022
-66.219
-68.223
-69.965
-71.407
-72.526
-73.318
-73.783
-73.922
-73.752
-73.309
-72.632
-71.753
-70.697
-69.478
-68.118
-66.65
-65.118
-63.573
-62.057
-60.599
-59.225
-57.956
-56.806
-55.787
-54.902
-54.142
-53.501
-52.973
-52.558
-52.257
-52.067
-51.982
-51.996
-52.102
-52.294
-52.566
-52.911
-53.324
-53.797
-54.325
-54.903
-55.528
-56.197
-56.904
-57.643
-58.408
-59.193
-59.993
-60.801
-61.612
-62.42
-63.218
-64.004
-64.772
-65.519
-66.241
-66.936
-67.601
-68.234
-68.833
-69.397
-69.925
-70.416
-70.87
-71.286
-71.663
-72.003
-72.304
-72.568
-72.795
-72.986
-73.143
-73.267
-73.359
-73.422
-73.455
-73.461
-73.442
-73.4
-73.336
-73.252
-73.15
-73.034
-72.906
-72.767
-72.62
-72.467
-72.311
-72.153
-71.996
-71.84
-71.687
-71.54
-71.398
-71.265
-71.14
-71.024
-70.919
-70.825
-70.742
-70.671
-70.613
-70.568
-70.535
-70.515
-70.509
-70.517
-70.538
-70.573
-70.622
-70.684
-70.761
-70.85
-70.952
-71.066
-71.191
-71.327
-71.472
-71.625
-71.785
-71.951
-72.122
-72.297
-72.475
-72.655
-72.838
-73.021
-73.206
-73.391
-73.577
-73.763
-73.95
-74.137
-74.323
-74.51
-74.696
-74.881
-75.065
-75.248
-75.429
-75.606
-75.781
-75.952
-76.118
-76.28
-76.436
-76.587
-76.732
-76.871
-77.005
-77.133
-77.256
-77.374
-77.487
-77.595
-77.698
-77.796
-77.888
-77.975
-78.055
-78.128
-78.194
-78.25
-78.298
-78.335
-78.361
-78.376
-78.379
-78.369
-78.346
-78.311
-78.263
-78.201
-78.128
-78.041
-77.943
-77.834
-77.714
-77.584
-77.444
-77.294
-77.136
-76.969
-76.793
-76.61
-76.419
-76.221
-76.017
-75.808
-75.595
-75.38
-75.164
-74.95
-74.738
-74.532
-74.333
-74.145
-73.969
-73.808
-73.665
-73.542
-73.443
-73.368
-73.322
-73.306
-73.322
-73.372
-73.458
-73.581
-73.742
-73.943
-74.185
-74.468
-74.792
-75.158
-75.567
-76.017
-76.508
-77.04
-77.61
-78.218
-78.859
-79.532
-80.234
-80.959
-81.703
-82.463
-83.23
-84.001
-84.769
-85.526
-86.265
-86.98
-87.661
-88.301
-88.892
-89.426
-89.894
-90.287
-90.599
-90.822
-90.948
-90.969
-90.881
-90.676
-90.35
-89.897
-89.313
-88.595
-87.741
-86.748
-85.615
-84.343
-82.931
-81.383
-79.7
-77.888
-75.951
-73.895
-71.727
-69.456
-67.09
-64.64
-62.117
-59.533
-56.899
-54.231
-51.541
-48.846
-46.159
-43.497
-40.875
-38.309
-35.814
-33.407
-31.103
-28.917
-26.863
-24.956
-23.208
-21.634
-20.244
-19.048
-18.057
-17.28
-16.728
-16.411
-16.334
-16.504
-16.928
-17.609
-18.551
-19.753
-21.21
-22.917
-24.866
-27.052
-29.467
-32.102
-34.945
-37.982
-41.199
-44.582
-48.113
-51.771
-55.53
-59.364
-63.253
-67.184
-71.149
-75.14
-79.147
-83.157
-87.155
-91.125
-95.046
-98.892
-102.622
-106.201
-109.594
-112.777
-115.73
-118.428
-120.838
-122.921
-124.626
-125.914
-126.745
-127.09
-126.951
-126.339
-125.288
-123.849
-122.076
-120.031
-117.807
-115.497
-113.206
-111.055
-109.132
-107.574
-106.612
-106.369
-106.845
-107.88
-108.997
-109.695
-109.648
-108.411
-105.456
-100.605
-94.007
-86.366
-79.304
-74.406
-72.75
-75.409
-83.176
-96.006
-113.065
-132.261
-149.7
-161.304
-163.713
-153.311
-126.838
-82.596
-19.985
58.45
145.894
237.117
327.959
414.907
497.641
568.64
616.305
632.361
607.06
542.424
447.841
326.661
189.563
46.278
-92.69
-203.713
-272.748
-296.946
-282.689
-251.682
-219.987
-193.901
-174.066
-154.17
-132.153
-110.446
-91.735
-79.474
-74.053
-73.373
-75.531
-78.167
-79.327
-78.369
-75.12
-69.823
-63.22
-55.997
-48.7
-41.998
-36.505
-32.47
-29.911
-28.664
-28.383
-28.799
-29.721
-30.913
-32.166
-33.308
-34.168
-34.659
-34.762
-34.442
-33.685
-32.491
-30.851
-28.791
-26.375
-23.654
-20.687
-17.527
-14.213
-10.796
-7.331
-3.878
-0.5
2.759
5.872
8.82
11.591
14.178
16.576
18.795
20.856
22.779
24.58
26.274
27.871
29.39
30.852
32.282
33.703
35.136
36.599
38.112
39.697
41.37
43.15
45.05
47.084
49.265
51.613
54.146
56.883
59.842
63.039
66.491
70.216
74.234
78.558
83.2
88.175
93.497
99.184
105.26
111.738
118.624
125.918
133.615
141.7
150.156
158.951
168.042
177.388
186.947
196.689
206.592
216.628
226.763
236.955
247.152
257.317
267.439
277.506
287.511
297.464
307.384
317.319
327.354
337.548
347.934
358.522
369.281
380.184
391.208
402.32
413.494
424.671
435.759
446.666
457.3
467.54
477.247
486.227
494.225
501.033
506.484
510.456
512.879
513.683
512.805
510.204
505.853
499.755
491.946
482.447
471.282
458.517
444.239
428.616
411.895
394.28
375.952
357.061
337.724
318.078
298.263
278.394
258.585
238.942
219.575
200.634
182.271
164.605
147.747
131.732
116.54
102.172
88.63
75.921
64.063
53.042
42.836
33.439
24.837
16.997
9.864
3.326
-2.725
-8.378
-13.728
-18.823
-23.686
-28.353
-32.847
-37.179
-41.369
-45.415
-49.312
-53.074
-56.704
-60.191
-63.508
-66.594
-69.396
-71.878
-74.006
-75.764
-77.15
-78.156
-78.795
-79.091
-79.069
-78.757
-78.186
-77.374
-76.348
-75.14
-73.789
-72.344
-70.849
-69.336
-67.837
-66.376
-64.976
-63.654
-62.421
-61.278
-60.225
-59.264
-58.398
-57.63
-56.961
-56.389
-55.913
-55.527
-55.228
-55.014
-54.883
-54.83
-54.853
-54.95
-55.119
-55.36
-55.672
-56.051
-56.493
-56.995
-57.552
-58.159
-58.81
-59.499
-60.221
-60.968
-61.734
-62.516
-63.306
-64.101
-64.894
-65.683
-66.462
-67.229
-67.981
-68.715
-69.428
-70.119
-70.786
-71.427
-72.042
-72.63
-73.189
-73.72
-74.222
-74.694
-75.137
-75.55
-75.932
-76.283
-76.602
-76.89
-77.146
-77.37
-77.562
-77.725
-77.857
-77.962
-78.039
-78.091
-78.118
-78.122
-78.103
-78.064
-78.005
-77.928
-77.832
-77.72
-77.593
-77.45
-77.293
-77.121
-76.934
-76.733
-76.517
-76.284
-76.036
-75.771
-75.489
-75.19
-74.875
-74.545
-74.199
-73.839
-73.465
-73.079
-72.681
-72.271
-71.851
-71.421
-70.98
-70.531
-70.074
-69.609
-69.137
-68.659
-68.176
-67.687
-67.193
-66.695
-66.195
-65.692
-65.189
-64.686
-64.186
-63.692
-63.204
-62.727
-62.262
-61.812
-61.379
-60.964
-60.569
-60.197
-59.847
-59.521
-59.219
-58.944
-58.695
-58.473
-58.278
-58.111
-57.972
-57.86
-57.776
-57.72
-57.692
-57.691
-57.717
-57.77
-57.85
-57.957
-58.091
-58.249
-58.433
-58.639
-58.866
-59.112
-59.375
-59.653
-59.943
-60.243
-60.551
-60.865
-61.184
-61.505
-61.828
-62.15
-62.471
-62.789
-63.104
-63.415
-63.721
-64.022
-64.316
-64.605
-64.887
-65.163
-65.432
-65.693
-65.947
-66.193
-66.431
-66.66
-66.88
-67.091
-67.293
-67.488
-67.675
-67.856
-68.032
-68.203
-68.37
-68.535
-68.698
-68.859
-69.018
-69.177
-69.334
-69.491
-69.648
-69.803
-69.958
-70.112
-70.264
-70.416
-70.566
-70.715
-70.863
-71.009
-71.155
-71.301
-71.447
-71.594
-71.744
-71.896
-72.052
-72.211
-72.376
-72.545
-72.719
-72.899
-73.085
-73.277
-73.477
-73.685
-73.901
-74.127
-74.363
-74.612
-74.873
-75.148
-75.438
-75.744
-76.065
-76.403
-76.756
-77.125
-77.509
-77.906
-78.314
-78.731
-79.154
-79.58
-80.004
-80.424
-80.835
-81.232
-81.612
-81.969
-82.298
-82.595
-82.856
-83.074
-83.246
-83.365
-83.427
-83.426
-83.357
-83.213
-82.99
-82.681
-82.281
-81.785
-81.188
-80.485
-79.673
-78.749
-77.711
-76.557
-75.288
-73.904
-72.407
-70.799
-69.086
-67.27
-65.357
-63.355
-61.27
-59.111
-56.885
-54.602
-52.27
-49.901
-47.504
-45.088
-42.666
-40.247
-37.844
-35.468
-33.132
-30.847
-28.626
-26.483
-24.431
-22.482
-20.651
-18.947
-17.384
-15.973
-14.724
-13.647
-12.749
-12.038
-11.52
-11.204
-11.094
-11.196
-11.514
-12.049
-12.805
-13.78
-14.974
-16.38
-17.993
-19.805
-21.809
-24
-26.372
-28.917
-31.625
-34.488
-37.495
-40.633
-43.886
-47.233
-50.651
-54.122
-57.635
-61.184
-64.763
-68.364
-71.977
-75.589
-79.182
-82.731
-86.206
-89.56
-92.752
-95.746
-98.513
-101.039
-103.307
-105.292
-106.959
-108.265
-109.173
-109.658
-109.696
-109.273
-108.415
-107.165
-105.6
-103.832
-101.938
-99.999
-98.11
-96.35
-94.817
-93.64
-92.9
-92.722
-93.313
-94.726
-96.898
-99.638
-102.418
-104.707
-106.14
-106.161
-104.167
-100.084
-94.112
-86.965
-80.258
-75.295
-72.836
-73.913
-79.252
-88.46
-100.572
-113.43
-123.114
-126.314
-120.551
-102.745
-70.265
-21.947
42.476
119.928
203.264
286.256
364.653
437.935
508.268
574.768
630.542
659.633
646.123
580.549
462.62
310.117
145.915
-7.47
-127.766
-208.855
-252.786
-267.276
-269.101
-266.251
-260.693
-252.129
-234.099
-205.997
-172.389
-137.013
-104.611
-77.882
-56.931
-41.899
-32.961
-29.318
-29.702
-33.226
-39.088
-46.305
-53.852
-60.675
-65.608
-68.193
-68.656
-67.182
-64.06
-59.841
-55.23
-50.88
-47.382
-45.006
-43.65
-43.147
-43.266
-43.67
-43.968
-43.878
-43.228
-41.952
-40.122
-37.819
-35.113
-32.105
-28.901
-25.567
-22.145
-18.662
-15.122
-11.559
-8.026
-4.561
-1.197
2.044
5.158
8.139
10.981
13.694
16.292
18.784
21.179
23.478
25.681
27.793
29.825
31.791
33.709
35.598
37.478
39.365
41.28
43.237
45.252
47.336
49.503
51.765
54.141
56.646
59.301
62.124
65.134
68.348
71.785
75.461
79.393
83.597
88.084
92.871
97.972
103.407
109.199
115.366
121.916
128.852
136.17
143.859
151.903
160.274
168.928
177.825
186.924
196.191
205.605
215.138
224.756
234.418
244.074
253.681
263.22
272.681
282.056
291.357
300.605
309.849
319.178
328.67
338.374
348.309
358.458
368.794
379.304
389.97
400.764
411.648
422.545
433.366
444.032
454.427
464.399
473.746
482.194
489.484
495.414
499.831
502.641
503.765
503.105
500.591
496.188
489.867
481.635
471.499
459.433
445.476
429.737
412.395
393.729
374.018
353.486
332.326
310.698
288.758
266.693
244.669
222.812
201.263
180.17
159.717
140.147
121.645
104.309
88.184
73.229
59.391
46.657
35.011
24.428
14.885
6.327
-1.288
-7.97
-13.764
-18.753
-23.069
-26.912
-30.442
-33.754
-36.916
-39.953
-42.88
-45.734
-48.532
-51.267
-53.936
-56.532
-59.058
-61.542
-63.985
-66.361
-68.611
-70.64
-72.381
-73.801
-74.879
-75.612
-76.003
-76.054
-75.786
-75.243
-74.464
-73.478
-72.312
-70.976
-69.496
-67.906
-66.25
-64.581
-62.939
-61.354
-59.848
-58.441
-57.147
-55.977
-54.93
-53.995
-53.165
-52.435
-51.803
-51.271
-50.836
-50.49
-50.229
-50.046
-49.934
-49.89
-49.907
-49.982
-50.109
-50.285
-50.508
-50.777
-51.092
-51.447
-51.84
-52.266
-52.72
-53.199
-53.698
-54.213
-54.741
-55.277
-55.82
-56.368
-56.92
-57.473
-58.028
-58.583
-59.139
-59.696
-60.253
-60.811
-61.369
-61.929
-62.49
-63.051
-63.612
-64.172
-64.73
-65.286
-65.837
-66.382
-66.92
-67.45
-67.969
-68.477
-68.973
-69.454
-69.921
-70.371
-70.805
-71.22
-71.615
-71.991
-72.345
-72.677
-72.985
-73.269
-73.528
-73.761
-73.967
-74.147
-74.299
-74.424
-74.52
-74.588
-74.629
-74.642
-74.629
-74.591
-74.53
-74.446
-74.342
-74.22
-74.082
-73.93
-73.766
-73.591
-73.409
-73.22
-73.026
-72.831
-72.635
-72.44
-72.249
-72.062
-71.881
-71.707
-71.541
-71.383
-71.235
-71.096
-70.968
-70.85
-70.742
-70.645
-70.559
-70.484
-70.419
-70.364
-70.318
-70.281
-70.251
-70.227
-70.208
-70.194
-70.183
-70.175
-70.168
-70.163
-70.158
-70.152
-70.144
-70.135
-70.122
-70.106
-70.085
-70.06
-70.03
-69.995
-69.956
-69.912
-69.863
-69.811
-69.754
-69.693
-69.628
-69.559
-69.486
-69.41
-69.33
-69.247
-69.161
-69.074
-68.984
-68.892
-68.799
-68.704
-68.607
-68.507
-68.406
-68.301
-68.192
-68.081
-67.965
-67.845
-67.72
-67.59
-67.455
-67.313
-67.164
-67.007
-66.841
-66.666
-66.48
-66.284
-66.077
-65.859
-65.63
-65.39
-65.139
-64.877
-64.605
-64.323
-64.031
-63.729
-63.419
-63.1
-62.775
-62.443
-62.108
-61.77
-61.431
-61.093
-60.758
-60.427
-60.102
-59.786
-59.481
-59.189
-58.912
-58.653
-58.415
-58.2
-58.012
-57.853
-57.724
-57.63
-57.57
-57.549
-57.566
-57.624
-57.724
-57.867
-58.055
-58.287
-58.566
-58.89
-59.261
-59.677
-60.138
-60.642
-61.187
-61.772
-62.393
-63.048
-63.734
-64.448
-65.184
-65.939
-66.709
-67.488
-68.269
-69.048
-69.818
-70.572
-71.302
-72.003
-72.667
-73.286
-73.853
-74.362
-74.805
-75.174
-75.463
-75.664
-75.772
-75.778
-75.678
-75.464
-75.132
-74.676
-74.094
-73.382
-72.537
-71.557
-70.443
-69.192
-67.807
-66.289
-64.639
-62.861
-60.958
-58.935
-56.799
-54.556
-52.213
-49.779
-47.263
-44.674
-42.024
-39.323
-36.583
-33.814
-31.03
-28.244
-25.468
-22.716
-20.003
-17.341
-14.746
-12.232
-9.813
-7.502
-5.313
-3.257
-1.348
0.405
1.99
3.398
4.62
5.647
6.469
7.077
7.463
7.621
7.545
7.231
6.675
5.876
4.838
3.563
2.057
0.323
-1.637
-3.817
-6.21
-8.805
-11.592
-14.561
-17.701
-20.994
-24.418
-27.954
-31.586
-35.304
-39.109
-42.993
-46.945
-50.951
-54.996
-59.061
-63.131
-67.175
-71.152
-75.022
-78.747
-82.293
-85.643
-88.765
-91.614
-94.143
-96.292
-98.018
-99.3
-100.116
-100.462
-100.356
-99.82
-98.904
-97.684
-96.236
-94.664
-93.09
-91.622
-90.38
-89.482
-89.077
-89.377
-90.476
-92.305
-94.645
-97.117
-99.369
-101.195
-102.301
-102.234
-100.781
-98.097
-94.778
-91.9
-90.345
-90.494
-92.68
-97.229
-104.075
-112.689
-121.394
-127.535
-129.065
-122.842
-105.804
-77.264
-35.261
16.645
70.761
127.018
184.123
247.555
330.289
428.071
530.371
618.144
660.456
645.48
575.837
465.966
345.296
232.332
134.162
51.063
-24.868
-95.096
-155.261
-201.479
-229.615
-239.769
-235.722
-220.88
-198.877
-173.94
-149.719
-128.74
-112.418
-100.854
-93.294
-89.071
-87.393
-86.758
-85.492
-82.616
-77.808
-71.325
-63.835
-55.864
-47.825
-40.358
-34.193
-29.774
-27.244
-26.465
-27.055
-28.659
-31.017
-33.842
-36.846
-39.786
-42.431
-44.642
-46.372
-47.589
-48.258
-48.346
-47.789
-46.533
-44.59
-42.007
-38.868
-35.295
-31.383
-27.216
-22.892
-18.507
-14.155
-9.907
-5.796
-1.825
1.995
5.65
9.114
12.357
15.378
18.193
20.824
23.31
25.676
27.945
30.153
32.337
34.527
36.752
39.023
41.341
43.716
46.159
48.687
51.317
54.063
56.932
59.938
63.095
66.416
69.918
73.614
77.512
81.627
85.973
90.562
95.414
100.54
105.95
111.654
117.664
123.992
130.654
137.658
145.001
152.677
160.676
168.978
177.562
186.397
195.438
204.645
213.984
223.42
232.933
242.496
252.074
261.627
271.105
280.463
289.678
298.733
307.614
316.325
324.885
333.334
341.743
350.173
358.655
367.206
375.818
384.473
393.167
401.895
410.647
419.414
428.161
436.824
445.341
453.609
461.489
468.808
475.336
480.843
485.152
488.116
489.608
489.534
487.789
484.266
478.893
471.604
462.346
451.12
437.943
422.875
406.053
387.655
367.932
347.176
325.63
303.522
281.081
258.512
236.037
213.903
192.31
171.453
151.537
132.715
115.122
98.868
83.985
70.466
58.255
47.239
37.324
28.43
20.452
13.29
6.829
0.912
-4.576
-9.739
-14.702
-19.556
-24.381
-29.257
-34.211
-39.246
-44.352
-49.485
-54.602
-59.675
-64.659
-69.5
-74.146
-78.512
-82.544
-86.207
-89.46
-92.277
-94.644
-96.543
-97.983
-98.99
-99.588
-99.811
-99.697
-99.275
-98.582
-97.665
-96.569
-95.349
-94.051
-92.707
-91.348
-90.002
-88.689
-87.43
-86.238
-85.114
-84.065
-83.098
-82.215
-81.425
-80.731
-80.13
-79.622
-79.203
-78.87
-78.621
-78.454
-78.365
-78.351
-78.41
-78.539
-78.736
-79.001
-79.327
-79.711
-80.145
-80.625
-81.143
-81.694
-82.271
-82.866
-83.474
-84.088
-84.703
-85.315
-85.917
-86.504
-87.073
-87.618
-88.135
-88.622
-89.073
-89.487
-89.862
-90.195
-90.487
-90.735
-90.942
-91.107
-91.231
-91.316
-91.363
-91.375
-91.353
-91.3
-91.218
-91.11
-90.977
-90.822
-90.648
-90.456
-90.251
-90.034
-89.807
-89.573
-89.332
-89.088
-88.842
-88.593
-88.344
-88.095
-87.848
-87.601
-87.357
-87.115
-86.874
-86.634
-86.395
-86.155
-85.912
-85.665
-85.412
-85.151
-84.879
-84.596
-84.3
-83.989
-83.664
-83.322
-82.964
-82.589
-82.197
-81.788
-81.363
-80.921
-80.464
-79.993
-79.509
-79.015
-78.512
-78.002
-77.488
-76.973
-76.46
-75.951
-75.45
-74.96
-74.484
-74.026
-73.59
-73.18
-72.799
-72.453
-72.144
-71.876
-71.651
-71.473
-71.342
-71.261
-71.23
-71.249
-71.319
-71.438
-71.606
-71.821
-72.081
-72.383
-72.725
-73.103
-73.514
-73.952
-74.414
-74.893
-75.387
-75.887
-76.391
-76.892
-77.383
-77.861
-78.318
-78.748
-79.146
-79.506
-79.822
-80.089
-80.301
-80.455
-80.547
-80.575
-80.535
-80.427
-80.25
-80.003
-79.688
-79.306
-78.858
-78.348
-77.778
-77.153
-76.478
-75.757
-74.998
-74.205
-73.386
-72.549
-71.699
-70.846
-69.995
-69.155
-68.332
-67.536
-66.773
-66.052
-65.38
-64.766
-64.215
-63.736
-63.335
-63.017
-62.787
-62.649
-62.607
-62.663
-62.82
-63.078
-63.438
-63.9
-64.462
-65.122
-65.877
-66.724
-67.656
-68.667
-69.751
-70.901
-72.107
-73.361
-74.653
-75.974
-77.316
-78.671
-80.03
-81.382
-82.719
-84.033
-85.313
-86.548
-87.727
-88.835
-89.862
-90.798
-91.636
-92.366
-92.979
-93.469
-93.83
-94.06
-94.157
-94.113
-93.919
-93.562
-93.04
-92.359
-91.534
-90.576
-89.495
-88.299
-87.006
-85.639
-84.211
-82.727
-81.171
-79.53
-77.799
-75.988
-74.121
-72.221
-70.296
-68.337
-66.334
-64.283
-62.188
-60.04
-57.815
-55.477
-53.017
-50.464
-47.883
-45.34
-42.874
-40.506
-38.239
-36.087
-34.077
-32.246
-30.623
-29.224
-28.067
-27.188
-26.653
-26.534
-26.866
-27.629
-28.756
-30.186
-31.884
-33.832
-36.015
-38.406
-40.968
-43.671
-46.499
-49.45
-52.504
-55.624
-58.744
-61.794
-64.736
-67.571
-70.328
-73.03
-75.683
-78.288
-80.849
-83.385
-85.907
-88.417
-90.895
-93.313
-95.651
-97.894
-100.033
-102.064
-103.967
-105.715
-107.272
-108.607
-109.694
-110.503
-111.001
-111.155
-110.933
-110.319
-109.313
-107.94
-106.253
-104.324
-102.239
-100.065
-97.856
-95.672
-93.59
-91.69
-90.055
-88.77
-87.863
-87.415
-87.585
-88.411
-89.805
-91.505
-92.978
-93.724
-93.439
-91.718
-88.112
-82.572
-75.274
-66.943
-59.057
-52.812
-49.011
-48.524
-51.794
-58.405
-67.499
-77.091
-83.902
-84.984
-77.537
-58.524
-25.723
20.419
77.165
140.729
205.456
270.654
340.955
415.238
490.194
554.653
584.961
567.921
498.598
379.401
232.77
79.58
-60.977
-166.269
-230.227
-254.063
-246.497
-227.902
-209.302
-195.269
-185.275
-171.164
-151.942
-130.871
-110.525
-95.523
-87.186
-83.565
-83.812
-86.581
-89.188
-90.317
-89.477
-86.214
-81.026
-74.63
-67.016
-58.341
-49.709
-41.849
-35.084
-29.727
-25.512
-22.121
-19.641
-18.08
-17.118
-16.523
-16.088
-15.556
-14.922
-14.22
-13.378
-12.393
-11.264
-9.939
-8.42
-6.739
-4.896
-2.919
-0.831
1.367
3.656
5.998
8.353
10.659
12.88
15.019
17.089
19.12
21.11
23.019
24.832
26.547
28.177
29.742
31.246
32.679
34.048
35.38
36.704
38.054
39.45
40.894
42.388
43.936
45.554
47.278
49.133
51.138
53.309
55.663
58.222
61.017
64.068
67.381
70.968
74.836
79
83.48
88.293
93.451
98.962
104.834
111.075
117.699
124.72
132.147
139.974
148.191
156.787
165.745
175.046
184.655
194.527
204.615
214.878
225.281
235.804
246.413
257.066
267.719
278.313
288.812
299.202
309.471
319.607
329.622
339.529
349.379
359.257
369.221
379.301
389.502
399.787
410.135
420.536
430.97
441.413
451.816
462.09
472.154
481.933
491.309
500.133
508.202
515.241
521.039
525.437
528.315
529.615
529.265
527.176
523.296
517.604
510.094
500.796
489.719
476.845
462.237
446.021
428.395
409.655
390.039
369.725
348.882
327.637
306.137
284.564
263.056
241.718
220.678
200.065
180.059
160.895
142.725
125.626
109.617
94.636
80.657
67.692
55.736
44.785
34.822
25.798
17.694
10.519
4.23
-1.248
-6.044
-10.357
-14.324
-18.025
-21.517
-24.813
-27.939
-30.941
-33.84
-36.636
-39.335
-41.937
-44.459
-46.944
-49.395
-51.789
-54.073
-56.157
-57.982
-59.523
-60.764
-61.705
-62.35
-62.702
-62.783
-62.637
-62.298
-61.796
-61.151
-60.368
-59.47
-58.488
-57.462
-56.44
-55.46
-54.545
-53.718
-52.994
-52.385
-51.898
-51.527
-51.26
-51.084
-50.994
-50.982
-51.048
-51.186
-51.387
-51.643
-51.945
-52.286
-52.659
-53.056
-53.471
-53.896
-54.327
-54.761
-55.195
-55.628
-56.056
-56.477
-56.887
-57.283
-57.663
-58.024
-58.364
-58.682
-58.975
-59.245
-59.491
-59.715
-59.919
-60.105
-60.278
-60.439
-60.593
-60.744
-60.894
-61.049
-61.21
-61.382
-61.567
-61.768
-61.986
-62.225
-62.487
-62.772
-63.081
-63.416
-63.776
-64.16
-64.568
-64.999
-65.449
-65.919
-66.404
-66.905
-67.417
-67.939
-68.468
-69.001
-69.534
-70.065
-70.59
-71.105
-71.606
-72.091
-72.556
-72.997
-73.412
-73.798
-74.153
-74.474
-74.758
-75.005
-75.213
-75.38
-75.505
-75.589
-75.631
-75.632
-75.594
-75.518
-75.408
-75.264
-75.091
-74.892
-74.669
-74.426
-74.167
-73.896
-73.616
-73.331
-73.046
-72.763
-72.487
-72.222
-71.97
-71.734
-71.516
-71.32
-71.147
-70.999
-70.877
-70.784
-70.721
-70.689
-70.688
-70.721
-70.786
-70.885
-71.016
-71.178
-71.371
-71.592
-71.84
-72.112
-72.407
-72.721
-73.053
-73.399
-73.756
-74.121
-74.491
-74.864
-75.234
-75.601
-75.961
-76.312
-76.652
-76.98
-77.295
-77.596
-77.882
-78.153
-78.41
-78.652
-78.879
-79.093
-79.293
-79.482
-79.66
-79.828
-79.99
-80.147
-80.301
-80.454
-80.61
-80.77
-80.937
-81.112
-81.3
-81.501
-81.719
-81.955
-82.211
-82.491
-82.794
-83.122
-83.476
-83.856
-84.26
-84.688
-85.138
-85.607
-86.093
-86.593
-87.102
-87.617
-88.133
-88.645
-89.146
-89.632
-90.095
-90.529
-90.926
-91.28
-91.584
-91.83
-92.012
-92.122
-92.154
-92.101
-91.957
-91.717
-91.374
-90.924
-90.362
-89.684
-88.888
-87.97
-86.93
-85.768
-84.484
-83.079
-81.556
-79.918
-78.169
-76.315
-74.361
-72.314
-70.183
-67.976
-65.703
-63.374
-61.002
-58.598
-56.175
-53.745
-51.323
-48.92
-46.55
-44.226
-41.962
-39.772
-37.667
-35.661
-33.765
-31.992
-30.353
-28.859
-27.519
-26.343
-25.337
-24.51
-23.867
-23.415
-23.157
-23.097
-23.239
-23.587
-24.144
-24.911
-25.889
-27.077
-28.473
-30.075
-31.875
-33.867
-36.038
-38.38
-40.885
-43.543
-46.347
-49.284
-52.343
-55.51
-58.773
-62.12
-65.533
-68.989
-72.468
-75.955
-79.443
-82.934
-86.423
-89.901
-93.36
-96.786
-100.165
-103.482
-106.71
-109.809
-112.745
-115.487
-118.015
-120.325
-122.396
-124.2
-125.7
-126.848
-127.612
-127.974
-127.916
-127.434
-126.547
-125.284
-123.701
-121.876
-119.876
-117.786
-115.701
-113.708
-111.908
-110.4
-109.305
-108.821
-109.055
-109.962
-111.363
-112.878
-114.09
-114.728
-114.458
-112.758
-109.369
-104.439
-98.559
-92.967
-88.902
-87.066
-88.039
-92.546
-100.83
-112.224
-124.986
-136.129
-142.426
-141.466
-130.96
-108.108
-70.58
-17.535
48.708
122.747
199.226
274.581
349.587
426.848
503.833
572.682
618.944
624.834
581.448
492.009
369.245
234.801
109.45
4.214
-74.785
-128.753
-165.587
-190.079
-207.114
-218.861
-221.796
-214.944
-199.104
-177.281
-155.623
-137.252
-122.226
-110.01
-99.296
-89.54
-81.147
-73.573
-65.708
-57.69
-50.733
-45.849
-43.776
-44.425
-46.703
-50.091
-54.647
-59.782
-64.443
-67.844
-69.392
-69.194
-68.184
-66.887
-65.388
-63.884
-62.529
-61.442
-60.798
-60.45
-59.906
-58.872
-57.231
-55.026
-52.587
-50.155
-47.683
-45.128
-42.403
-39.477
-36.673
-33.975
-30.696
-26.639
-22.329
-18.237
-15.534
-13.761
-9.895
-4.383
0.412
0.838
-9.945
-29.845
-50.808
-66.576
-66.469
-49.239
-21.607
15.231
52.376
82.594
104.956
110.446
96.638
67.5
25.564
-16.614
-44.708
-51.571
-34.302
-0.323
34.888
59.938
70.177
68.17
62.675
60.102
62.036
67.449
73.674
79.572
85.687
92.531
100.362
108.916
117.772
126.797
135.987
145.277
154.565
163.792
172.987
182.261
191.689
201.259
210.905
220.548
230.145
239.684
249.157
258.556
267.888
277.179
286.482
295.883
305.455
315.242
325.259
335.493
345.925
356.545
367.34
378.292
389.368
400.5
411.606
422.592
433.326
443.641
453.323
462.106
469.742
476.032
480.815
483.97
485.39
484.966
482.618
478.283
471.914
463.494
453.02
440.519
426.084
409.865
392.075
372.982
352.86
331.944
310.454
288.59
266.54
244.503
222.66
201.192
180.295
160.153
140.948
122.831
105.886
90.153
75.625
62.25
49.965
38.714
28.433
19.07
10.579
2.893
-4.049
-10.333
-16.082
-21.414
-26.451
-31.295
-36.005
-40.622
-45.166
-49.638
-54.023
-58.304
-62.457
-66.466
-70.329
-74.033
-77.561
-80.877
-83.92
-86.638
-88.987
-90.935
-92.47
-93.589
-94.296
-94.609
-94.56
-94.182
-93.517
-92.597
-91.444
-90.089
-88.565
-86.913
-85.186
-83.425
-81.665
-79.935
-78.26
-76.657
-75.146
-73.732
-72.415
-71.193
-70.064
-69.028
-68.087
-67.239
-66.478
-65.798
-65.189
-64.646
-64.162
-63.731
-63.346
-63.002
-62.692
-62.414
-62.167
-61.946
-61.747
-61.567
-61.4
-61.24
-61.086
-60.931
-60.771
-60.603
-60.423
-60.23
-60.021
-59.794
-59.55
-59.285
-59.001
-58.698
-58.377
-58.04
-57.691
-57.332
-56.968
-56.602
-56.241
-55.89
-55.551
-55.231
-54.932
-54.66
-54.417
-54.208
-54.036
-53.904
-53.813
-53.767
-53.766
-53.812
-53.905
-54.044
-54.229
-54.456
-54.726
-55.038
-55.394
-55.79
-56.225
-56.694
-57.192
-57.717
-58.268
-58.839
-59.425
-60.016
-60.609
-61.204
-61.803
-62.407
-63.013
-63.611
-64.193
-64.757
-65.307
-65.852
-66.393
-66.925
-67.444
-67.948
-68.446
-68.949
-69.456
-69.948
-70.404
-70.802
-71.133
-71.412
-71.652
-71.846
-71.969
-71.972
-71.811
-71.489
-71.044
-70.522
-69.941
-69.271
-68.479
-67.612
-66.826
-66.226
-65.723
-65.02
-63.781
-61.891
-59.605
-57.313
-55.082
-52.922
-51.159
-50.514
-52.104
-56.757
-64.163
-73.283
-83.319
-93.505
-102.942
-110.46
-113.997
-111.599
-102.999
-89.145
-71.424
-51.672
-31.488
-12.417
2.953
11.926
13.162
6.357
-7.498
-26.323
-48.415
-72.162
-95.251
-115.217
-129.915
-137.676
-138.369
-133.064
-122.659
-108.217
-91.082
-72.836
-55.628
-41.436
-31.129
-24.852
-22.678
-24.44
-29.848
-38.151
-47.789
-57.393
-66.174
-73.603
-79.308
-82.94
-84.239
-83.481
-81.505
-78.97
-76.255
-73.611
-71.157
-69.154
-67.844
-67.155
-66.779
-66.475
-66.131
-65.746
-65.405
-65.09
-64.745
-64.387
-64.07
-63.862
-63.795
-63.848
-63.964
-64.105
-64.256
-64.419
-64.598
-64.789
-64.982
-65.175
-65.366
-65.561
-65.765
-65.978
-66.199
-66.428
-66.662
-66.905
-67.161
-67.43
-67.714
-68.007
-68.301
-68.59
-68.867
-69.128
-69.369
-69.583
-69.766
-69.911
-70.015
-70.075
-70.085
-70.041
-69.938
-69.772
-69.538
-69.231
-68.849
-68.388
-67.845
-67.216
-66.498
-65.689
-64.786
-63.79
-62.699
-61.513
-60.233
-58.862
-57.402
-55.857
-54.232
-52.53
-50.757
-48.919
-47.023
-45.077
-43.087
-41.061
-39.008
-36.936
-34.853
-32.77
-30.694
-28.635
-26.602
-24.605
-22.654
-20.76
-18.931
-17.178
-15.511
-13.941
-12.478
-11.131
-9.909
-8.821
-7.875
-7.078
-6.438
-5.959
-5.646
-5.504
-5.538
-5.754
-6.156
-6.748
-7.533
-8.513
-9.69
-11.065
-12.636
-14.397
-16.341
-18.462
-20.754
-23.213
-25.832
-28.602
-31.513
-34.556
-37.718
-40.989
-44.35
-47.78
-51.258
-54.767
-58.299
-61.853
-65.424
-69.006
-72.589
-76.16
-79.704
-83.203
-86.628
-89.94
-93.1
-96.075
-98.839
-101.377
-103.665
-105.673
-107.363
-108.687
-109.606
-110.087
-110.105
-109.664
-108.785
-107.498
-105.861
-103.932
-101.773
-99.484
-97.168
-94.907
-92.811
-90.959
-89.465
-88.571
-88.399
-88.9
-89.88
-90.899
-91.477
-91.298
-89.935
-86.797
-81.683
-74.846
-67.077
-59.81
-54.404
-52.126
-54.127
-61.151
-73.436
-88.589
-103.079
-114.784
-120.128
-118.671
-110.625
-88.856
-49.367
11.595
97.482
198.235
303.429
403.546
486.366
548.715
589.016
604.624
596.065
562.765
505.645
428.915
338.15
240.225
141.695
47.766
-36.921
-108.976
-166.118
-206.886
-231.928
-243.354
-243.283
-233.825
-217.064
-194.586
-168.428
-141
-113.481
-86.446
-60.688
-37.08
-17.031
-2.193
6.979
10.893
9.728
3.928
-5.727
-18.125
-31.221
-42.877
-51.993
-58.132
-61.11
-61.142
-58.534
-53.863
-48.351
-43.116
-38.701
-35.315
-32.879
-31.156
-30.01
-29.205
-28.299
-26.979
-25.121
-22.714
-19.901
-16.829
-13.56
-10.175
-6.771
-3.404
-0.124
3.035
6.087
9.033
11.861
14.567
17.142
19.579
21.89
24.091
26.196
28.216
30.162
32.037
33.85
35.61
37.331
39.029
40.716
42.41
44.13
45.895
47.728
49.646
51.663
53.793
56.052
58.455
61.025
63.781
66.74
69.922
73.345
77.027
80.988
85.242
89.799
94.674
99.88
105.434
111.36
117.673
124.378
131.478
138.968
146.838
155.069
163.635
172.496
181.615
190.959
200.498
210.217
220.093
230.098
240.196
250.341
260.492
270.628
280.732
290.793
300.811
310.798
320.789
330.848
341.034
351.38
361.895
372.555
383.324
394.171
405.063
415.973
426.863
437.662
448.29
458.662
468.683
478.236
487.168
495.267
502.315
508.13
512.572
515.547
516.99
516.836
515.021
511.491
506.217
499.209
490.494
480.105
468.075
454.455
439.357
422.97
405.52
387.223
368.257
348.769
328.9
308.805
288.655
268.625
248.851
229.44
210.496
192.125
174.457
157.623
141.698
126.693
112.574
99.301
86.856
75.235
64.412
54.334
44.922
36.082
27.76
19.929
12.549
5.579
-1.053
-7.436
-13.618
-19.612
-25.415
-31.013
-36.407
-41.611
-46.606
-51.354
-55.803
-59.889
-63.583
-66.884
-69.781
-72.27
-74.338
-75.962
-77.146
-77.912
-78.284
-78.286
-77.941
-77.267
-76.301
-75.093
-73.697
-72.174
-70.566
-68.903
-67.218
-65.539
-63.89
-62.296
-60.771
-59.321
-57.953
-56.677
-55.504
-54.442
-53.494
-52.658
-51.93
-51.305
-50.779
-50.347
-50.007
-49.751
-49.576
-49.479
-49.456
-49.507
-49.627
-49.812
-50.054
-50.347
-50.683
-51.058
-51.462
-51.89
-52.335
-52.791
-53.255
-53.722
-54.19
-54.655
-55.115
-55.568
-56.013
-56.448
-56.872
-57.285
-57.687
-58.078
-58.46
-58.832
-59.198
-59.557
-59.913
-60.265
-60.618
-60.97
-61.325
-61.683
-62.045
-62.413
-62.788
-63.171
-63.564
-63.966
-64.379
-64.803
-65.239
-65.686
-66.144
-66.61
-67.083
-67.562
-68.044
-68.527
-69.008
-69.487
-69.959
-70.424
-70.879
-71.322
-71.752
-72.166
-72.563
-72.941
-73.298
-73.633
-73.944
-74.231
-74.494
-74.732
-74.946
-75.135
-75.3
-75.442
-75.561
-75.658
-75.733
-75.787
-75.822
-75.84
-75.841
-75.829
-75.805
-75.771
-75.732
-75.688
-75.642
-75.596
-75.553
-75.513
-75.478
-75.451
-75.433
-75.425
-75.428
-75.445
-75.477
-75.525
-75.589
-75.671
-75.769
-75.886
-76.019
-76.169
-76.336
-76.52
-76.72
-76.937
-77.17
-77.419
-77.684
-77.963
-78.257
-78.563
-78.881
-79.209
-79.545
-79.89
-80.24
-80.597
-80.958
-81.324
-81.693
-82.065
-82.439
-82.813
-83.187
-83.56
-83.93
-84.296
-84.658
-85.016
-85.367
-85.713
-86.052
-86.384
-86.708
-87.024
-87.33
-87.625
-87.909
-88.181
-88.441
-88.687
-88.921
-89.142
-89.351
-89.549
-89.735
-89.91
-90.075
-90.229
-90.374
-90.508
-90.632
-90.746
-90.852
-90.949
-91.038
-91.12
-91.196
-91.267
-91.333
-91.394
-91.452
-91.507
-91.56
-91.612
-91.664
-91.718
-91.773
-91.833
-91.898
-91.968
-92.046
-92.131
-92.223
-92.323
-92.43
-92.544
-92.664
-92.791
-92.925
-93.065
-93.211
-93.364
-93.524
-93.692
-93.867
-94.05
-94.242
-94.442
-94.653
-94.873
-95.105
-95.348
-95.605
-95.876
-96.161
-96.461
-96.776
-97.108
-97.455
-97.818
-98.196
-98.591
-99.001
-99.427
-99.869
-100.328
-100.804
-101.296
-101.805
-102.329
-102.869
-103.423
-103.988
-104.563
-105.144
-105.73
-106.316
-106.898
-107.471
-108.031
-108.572
-109.089
-109.574
-110.022
-110.425
-110.777
-111.072
-111.302
-111.461
-111.543
-111.541
-111.451
-111.266
-110.982
-110.594
-110.096
-109.486
-108.758
-107.909
-106.938
-105.843
-104.622
-103.276
-101.805
-100.211
-98.499
-96.67
-94.731
-92.687
-90.545
-88.312
-85.998
-83.612
-81.166
-78.671
-76.139
-73.583
-71.017
-68.454
-65.908
-63.392
-60.919
-58.504
-56.16
-53.9
-51.736
-49.681
-47.747
-45.946
-44.288
-42.784
-41.443
-40.273
-39.281
-38.474
-37.858
-37.436
-37.212
-37.188
-37.367
-37.751
-38.339
-39.131
-40.126
-41.321
-42.713
-44.296
-46.06
-47.997
-50.095
-52.345
-54.736
-57.256
-59.895
-62.642
-65.487
-68.42
-71.431
-74.505
-77.624
-80.772
-83.934
-87.098
-90.262
-93.418
-96.555
-99.667
-102.747
-105.785
-108.767
-111.66
-114.418
-117.003
-119.375
-121.506
-123.382
-124.974
-126.253
-127.195
-127.763
-127.944
-127.74
-127.133
-126.112
-124.691
-122.911
-120.875
-118.724
-116.575
-114.521
-112.634
-110.986
-109.697
-108.865
-108.592
-108.972
-110.014
-111.793
-114.458
-117.974
-122.172
-126.748
-131.072
-134.528
-136.684
-136.947
-134.847
-130.447
-124.003
-116.132
-108.002
-100.888
-95.913
-94.094
-95.982
-99.565
-102.432
-103.934
-101.43
-94.965
-84.602
-62.854
-26.768
25.392
96.504
178.521
267.345
361.856
453.36
534.936
593.168
611.499
583.984
513.788
415.332
306.544
199.605
100.084
6.679
-80.985
-159.228
-222.915
-266.885
-289.83
-294.2
-283.438
-261.362
-231.626
-198.305
-166.09
-138.113
-115.559
-98.706
-87.09
-80.205
-77.827
-78.438
-79.379
-79.124
-77.177
-73.423
-68.345
-62.099
-54.287
-45.481
-37.096
-29.98
-24.594
-21.063
-18.964
-18.148
-18.802
-20.663
-23.157
-25.829
-28.238
-30.179
-31.731
-32.867
-33.465
-33.473
-32.853
-31.591
-29.748
-27.348
-24.392
-20.926
-17.021
-12.792
-8.375
-3.888
0.566
4.923
9.146
13.208
17.092
20.786
24.27
27.525
30.548
33.33
35.874
38.197
40.319
42.282
44.139
45.934
47.712
49.503
51.328
53.206
55.151
57.171
59.281
61.494
63.824
66.292
68.917
71.718
74.712
77.916
81.342
85.001
88.909
93.077
97.521
102.257
107.297
112.658
118.359
124.418
130.859
137.697
144.938
152.582
160.624
169.049
177.838
186.962
196.377
206.044
215.926
225.989
236.21
246.565
257.019
267.533
278.061
288.562
299.014
309.4
319.707
329.937
340.102
350.236
360.406
370.667
381.056
391.584
402.233
412.973
423.775
434.605
445.433
456.213
466.868
477.311
487.453
497.186
506.384
514.887
522.479
528.949
534.12
537.848
540.037
540.619
539.529
536.713
532.131
525.758
517.612
507.727
496.143
482.923
468.139
451.921
434.469
416.004
396.732
376.841
356.486
335.805
314.954
294.09
273.369
252.95
232.958
213.507
194.712
176.688
159.549
143.369
128.161
113.904
100.575
88.152
76.628
65.999
56.224
47.247
39.003
31.403
24.39
17.911
11.9
6.29
0.997
-4.044
-8.861
-13.461
-17.845
-22.019
-25.995
-29.787
-33.376
-36.738
-39.839
-42.63
-45.091
-47.209
-48.969
-50.359
-51.363
-51.971
-52.196
-52.065
-51.605
-50.843
-49.802
-48.505
-46.995
-45.316
-43.517
-41.652
-39.759
-37.872
-36.024
-34.242
-32.55
-30.97
-29.513
-28.183
-26.985
-25.924
-25.007
-24.237
-23.614
-23.132
-22.786
-22.569
-22.473
-22.494
-22.624
-22.857
-23.186
-23.607
-24.114
-24.704
-25.371
-26.107
-26.905
-27.755
-28.65
-29.582
-30.54
-31.517
-32.505
-33.495
-34.482
-35.459
-36.419
-37.358
-38.271
-39.152
-39.997
-40.805
-41.572
-42.297
-42.978
-43.617
-44.212
-44.764
-45.275
-45.746
-46.178
-46.574
-46.934
-47.262
-47.56
-47.831
-48.077
-48.302
-48.509
-48.7
-48.88
-49.05
-49.213
-49.374
-49.533
-49.694
-49.859
-50.029
-50.209
-50.398
-50.599
-50.814
-51.044
-51.29
-51.551
-51.83
-52.125
-52.437
-52.764
-53.107
-53.465
-53.836
-54.22
-54.615
-55.019
-55.43
-55.847
-56.267
-56.688
-57.107
-57.524
-57.936
-58.341
-58.738
-59.125
-59.502
-59.867
-60.218
-60.556
-60.878
-61.184
-61.473
-61.744
-61.995
-62.226
-62.437
-62.626
-62.795
-62.942
-63.067
-63.171
-63.253
-63.314
-63.353
-63.372
-63.372
-63.353
-63.318
-63.267
-63.202
-63.127
-63.041
-62.949
-62.85
-62.746
-62.639
-62.531
-62.421
-62.311
-62.203
-62.096
-61.993
-61.894
-61.801
-61.714
-61.635
-61.564
-61.503
-61.453
-61.414
-61.388
-61.376
-61.378
-61.396
-61.43
-61.483
-61.554
-61.643
-61.751
-61.877
-62.02
-62.18
-62.355
-62.544
-62.746
-62.959
-63.183
-63.417
-63.658
-63.907
-64.162
-64.422
-64.685
-64.951
-65.217
-65.482
-65.745
-66.004
-66.259
-66.506
-66.746
-66.976
-67.194
-67.399
-67.588
-67.76
-67.912
-68.044
-68.153
-68.238
-68.299
-68.335
-68.348
-68.336
-68.301
-68.243
-68.165
-68.066
-67.949
-67.816
-67.669
-67.509
-67.339
-67.163
-66.983
-66.802
-66.623
-66.449
-66.284
-66.13
-65.992
-65.872
-65.775
-65.703
-65.661
-65.651
-65.679
-65.747
-65.859
-66.018
-66.226
-66.486
-66.799
-67.166
-67.589
-68.067
-68.6
-69.187
-69.826
-70.516
-71.254
-72.036
-72.859
-73.718
-74.608
-75.522
-76.455
-77.401
-78.352
-79.302
-80.242
-81.165
-82.063
-82.928
-83.752
-84.525
-85.24
-85.886
-86.457
-86.944
-87.339
-87.635
-87.824
-87.9
-87.857
-87.691
-87.396
-86.969
-86.407
-85.706
-84.867
-83.888
-82.772
-81.519
-80.134
-78.619
-76.981
-75.226
-73.36
-71.392
-69.329
-67.182
-64.962
-62.678
-60.343
-57.97
-55.57
-53.158
-50.748
-48.352
-45.986
-43.662
-41.393
-39.195
-37.078
-35.058
-33.146
-31.353
-29.692
-28.174
-26.809
-25.608
-24.579
-23.729
-23.065
-22.593
-22.318
-22.243
-22.371
-22.702
-23.237
-23.979
-24.928
-26.082
-27.44
-28.999
-30.755
-32.704
-34.839
-37.149
-39.624
-42.252
-45.022
-47.925
-50.951
-54.088
-57.323
-60.646
-64.042
-67.501
-71.005
-74.533
-78.065
-81.586
-85.084
-88.559
-92.008
-95.422
-98.795
-102.116
-105.371
-108.542
-111.602
-114.51
-117.229
-119.725
-121.972
-123.958
-125.664
-127.058
-128.109
-128.774
-129.021
-128.832
-128.185
-127.069
-125.513
-123.562
-121.29
-118.809
-116.195
-113.526
-110.916
-108.454
-106.248
-104.437
-103.099
-102.357
-102.412
-103.312
-104.993
-107.281
-109.709
-111.826
-113.359
-113.826
-112.662
-109.758
-105.239
-99.689
-94.425
-90.404
-88.111
-88.313
-91.65
-97.891
-106.233
-114.745
-120.256
-120.322
-112.809
-95.049
-64.679
-19.998
38.075
105.265
176.882
248.592
320.399
396.629
475.666
552.418
614.721
640.95
619.385
545.84
425.876
282.315
136.658
8.805
-86.075
-147.834
-182.122
-199.666
-211.371
-220.148
-224.794
-221.5
-207.948
-186.778
-162.53
-139.471
-119.94
-104.446
-92.822
-84.227
-77.927
-73.017
-68.623
-64.966
-62.424
-60.786
-59.575
-58.457
-57.287
-56.234
-55.379
-54.132
-51.993
-49.065
-45.866
-42.887
-40.36
-38.262
-36.526
-35.343
-34.844
-34.846
-34.958
-34.8
-34.174
-33.065
-31.537
-29.59
-27.213
-24.459
-21.433
-18.259
-15.017
-11.736
-8.416
-5.075
-1.759
1.468
4.558
7.481
10.224
12.782
15.151
17.335
19.349
21.216
22.956
24.588
26.124
27.575
28.958
30.289
31.589
32.884
34.199
35.558
36.984
38.497
40.114
41.853
43.728
45.75
47.937
50.306
52.875
55.665
58.694
61.982
65.547
69.406
73.577
78.073
82.905
88.084
93.625
99.542
105.858
112.585
119.727
127.283
135.248
143.607
152.338
161.408
170.769
180.379
190.195
200.183
210.317
220.564
230.889
241.249
251.595
261.883
272.083
282.172
292.138
301.989
311.746
321.46
331.211
341.066
351.076
361.274
371.663
382.24
392.995
403.917
414.996
426.214
437.54
448.922
460.278
471.486
482.391
492.79
502.434
511.082
518.499
524.482
528.868
531.514
532.302
531.122
527.867
522.43
514.715
504.676
492.316
477.704
460.961
442.27
421.875
400.046
377.086
353.285
328.907
304.197
279.391
254.732
230.483
206.931
184.358
162.994
143.018
124.553
107.68
92.43
78.784
66.672
55.976
46.571
38.347
31.202
25.029
19.695
15.032
10.835
6.911
3.106
-0.704
-4.609
-8.684
-12.98
-17.517
-22.274
-27.197
-32.233
-37.339
-42.483
-47.621
-52.693
-57.611
-62.271
-66.585
-70.496
-73.959
-76.95
-79.448
-81.442
-82.944
-83.987
-84.614
-84.866
-84.777
-84.375
-83.694
-82.781
-81.687
-80.474
-79.185
-77.855
-76.513
-75.182
-73.883
-72.633
-71.438
-70.294
-69.2
-68.158
-67.171
-66.244
-65.38
-64.577
-63.83
-63.138
-62.499
-61.913
-61.379
-60.895
-60.461
-60.077
-59.745
-59.469
-59.249
-59.083
-58.971
-58.91
-58.897
-58.929
-59.005
-59.12
-59.27
-59.455
-59.671
-59.916
-60.189
-60.487
-60.808
-61.149
-61.509
-61.886
-62.277
-62.68
-63.094
-63.518
-63.95
-64.389
-64.833
-65.28
-65.729
-66.178
-66.625
-67.069
-67.508
-67.94
-68.364
-68.778
-69.181
-69.571
-69.949
-70.312
-70.66
-70.993
-71.31
-71.61
-71.893
-72.159
-72.407
-72.638
-72.852
-73.048
-73.229
-73.392
-73.54
-73.673
-73.79
-73.892
-73.98
-74.054
-74.114
-74.161
-74.197
-74.223
-74.241
-74.251
-74.256
-74.258
-74.258
-74.257
-74.258
-74.262
-74.269
-74.283
-74.302
-74.33
-74.365
-74.41
-74.463
-74.524
-74.593
-74.67
-74.752
-74.84
-74.931
-75.025
-75.12
-75.216
-75.312
-75.408
-75.502
-75.594
-75.682
-75.767
-75.846
-75.917
-75.981
-76.035
-76.077
-76.107
-76.123
-76.124
-76.108
-76.076
-76.024
-75.953
-75.862
-75.75
-75.617
-75.463
-75.289
-75.096
-74.885
-74.658
-74.417
-74.165
-73.903
-73.633
-73.357
-73.077
-72.793
-72.507
-72.221
-71.936
-71.653
-71.373
-71.098
-70.829
-70.567
-70.314
-70.069
-69.835
-69.611
-69.398
-69.198
-69.011
-68.838
-68.68
-68.538
-68.413
-68.305
-68.213
-68.137
-68.077
-68.032
-67.999
-67.978
-67.967
-67.965
-67.971
-67.983
-68.001
-68.023
-68.05
-68.081
-68.114
-68.15
-68.187
-68.226
-68.266
-68.308
-68.352
-68.397
-68.445
-68.496
-68.549
-68.605
-68.663
-68.722
-68.783
-68.845
-68.907
-68.968
-69.029
-69.088
-69.148
-69.206
-69.264
-69.322
-69.38
-69.438
-69.497
-69.555
-69.613
-69.672
-69.73
-69.788
-69.847
-69.905
-69.963
-70.021
-70.078
-70.134
-70.188
-70.239
-70.289
-70.336
-70.381
-70.424
-70.467
-70.509
-70.554
-70.601
-70.652
-70.71
-70.775
-70.849
-70.934
-71.03
-71.14
-71.264
-71.404
-71.56
-71.734
-71.925
-72.135
-72.362
-72.606
-72.866
-73.142
-73.433
-73.735
-74.048
-74.37
-74.698
-75.029
-75.361
-75.69
-76.011
-76.32
-76.613
-76.884
-77.127
-77.337
-77.507
-77.63
-77.701
-77.712
-77.657
-77.53
-77.324
-77.032
-76.649
-76.17
-75.59
-74.904
-74.111
-73.205
-72.187
-71.056
-69.81
-68.45
-66.977
-65.395
-63.705
-61.912
-60.02
-58.035
-55.962
-53.809
-51.584
-49.296
-46.955
-44.571
-42.155
-39.719
-37.275
-34.836
-32.414
-30.024
-27.678
-25.39
-23.173
-21.043
-19.01
-17.087
-15.287
-13.621
-12.1
-10.733
-9.53
-8.499
-7.646
-6.979
-6.503
-6.222
-6.141
-6.263
-6.591
-7.128
-7.878
-8.839
-10.013
-11.398
-12.991
-14.789
-16.785
-18.968
-21.329
-23.858
-26.548
-29.389
-32.37
-35.48
-38.706
-42.036
-45.457
-48.953
-52.502
-56.084
-59.683
-63.289
-66.902
-70.518
-74.131
-77.735
-81.318
-84.865
-88.355
-91.76
-95.039
-98.151
-101.063
-103.749
-106.195
-108.385
-110.286
-111.866
-113.078
-113.885
-114.267
-114.2
-113.67
-112.707
-111.355
-109.689
-107.822
-105.829
-103.781
-101.78
-99.909
-98.274
-97.021
-96.239
-96.067
-96.716
-98.233
-100.559
-103.508
-106.575
-109.252
-111.197
-111.865
-110.687
-107.622
-102.869
-97.11
-91.815
-88.111
-86.663
-88.389
-93.904
-102.776
-113.987
-125.387
-133.426
-135.131
-127.976
-109.036
-76.074
-28.212
34.303
109.29
192.489
279.539
365.434
443.973
509.187
555.821
579.714
578.63
552.224
501.254
428.53
338.982
238.528
133.725
30.785
-64.677
-147.369
-212.984
-259.342
-286.139
-294.709
-287.602
-267.364
-237.23
-201.679
-165.099
-130.899
-101.722
-78.775
-62.452
-53.509
-51.784
-55.637
-63.038
-71.872
-80.033
-86.527
-90.8
-91.805
-89.104
-83.062
-74.367
-64.244
-54.117
-44.648
-36.182
-29.249
-24.064
-20.695
-19.118
-18.852
-19.241
-19.92
-20.701
-21.452
-22.171
-22.776
-23.109
-23.16
-22.991
-22.642
-22.139
-21.437
-20.428
-19.031
-17.226
-15.029
-12.483
-9.626
-6.472
-3.048
0.59
4.358
8.157
11.928
15.65
19.327
22.967
26.566
30.111
33.587
37.002
40.359
43.654
46.877
50.006
53.042
56.016
58.969
61.95
64.984
68.082
71.231
74.407
77.584
80.722
83.797
86.791
89.718
92.626
95.581
98.67
101.959
105.488
109.293
113.403
117.855
122.687
127.952
133.709
140.028
147.003
154.703
163.176
172.432
182.433
193.102
204.332
216.027
228.099
240.463
253.04
265.736
278.469
291.153
303.704
316.026
328.001
339.516
350.478
360.827
370.54
379.643
388.191
396.231
403.823
411.026
417.896
424.511
430.926
437.173
443.274
449.245
455.121
460.942
466.738
472.494
478.164
483.657
488.84
493.589
497.745
501.131
503.582
504.906
504.93
503.536
500.617
496.074
489.813
481.723
471.694
459.69
445.719
429.838
412.173
392.859
372.075
350.054
327.022
303.236
278.958
254.406
229.791
205.348
181.307
157.936
135.53
114.308
94.435
76.043
59.182
43.89
30.174
17.975
7.227
-2.155
-10.275
-17.215
-23.052
-27.907
-31.913
-35.245
-38.128
-40.735
-43.192
-45.61
-48.05
-50.559
-53.18
-55.909
-58.722
-61.601
-64.519
-67.459
-70.422
-73.374
-76.266
-79.031
-81.566
-83.797
-85.684
-87.19
-88.306
-89.028
-89.357
-89.318
-88.955
-88.305
-87.402
-86.276
-84.942
-83.433
-81.787
-80.048
-78.27
-76.493
-74.748
-73.059
-71.448
-69.928
-68.511
-67.199
-65.982
-64.856
-63.82
-62.874
-62.02
-61.259
-60.587
-60.001
-59.496
-59.07
-58.722
-58.448
-58.245
-58.112
-58.047
-58.05
-58.121
-58.26
-58.464
-58.73
-59.053
-59.429
-59.853
-60.322
-60.829
-61.37
-61.94
-62.537
-63.158
-63.798
-64.455
-65.125
-65.806
-66.494
-67.187
-67.883
-68.578
-69.27
-69.958
-70.638
-71.308
-71.965
-72.608
-73.233
-73.839
-74.422
-74.982
-75.515
-76.02
-76.496
-76.942
-77.357
-77.74
-78.091
-78.411
-78.699
-78.956
-79.182
-79.377
-79.542
-79.675
-79.778
-79.852
-79.896
-79.913
-79.901
-79.864
-79.802
-79.716
-79.608
-79.479
-79.33
-79.162
-78.978
-78.778
-78.564
-78.339
-78.104
-77.861
-77.613
-77.361
-77.108
-76.855
-76.603
-76.355
-76.111
-75.873
-75.641
-75.417
-75.202
-74.998
-74.805
-74.624
-74.457
-74.303
-74.164
-74.039
-73.929
-73.832
-73.75
-73.681
-73.625
-73.582
-73.552
-73.535
-73.531
-73.539
-73.56
-73.592
-73.635
-73.688
-73.75
-73.82
-73.898
-73.984
-74.075
-74.173
-74.275
-74.383
-74.495
-74.611
-74.729
-74.849
-74.969
-75.09
-75.209
-75.328
-75.444
-75.559
-75.673
-75.784
-75.895
-76.004
-76.111
-76.218
-76.323
-76.426
-76.527
-76.626
-76.723
-76.817
-76.911
-77.002
-77.093
-77.183
-77.273
-77.363
-77.453
-77.544
-77.637
-77.732
-77.831
-77.933
-78.042
-78.158
-78.284
-78.42
-78.569
-78.732
-78.911
-79.107
-79.32
-79.553
-79.807
-80.081
-80.378
-80.698
-81.043
-81.413
-81.809
-82.232
-82.682
-83.159
-83.664
-84.194
-84.751
-85.333
-85.939
-86.568
-87.218
-87.886
-88.57
-89.268
-89.974
-90.686
-91.399
-92.107
-92.805
-93.488
-94.149
-94.782
-95.381
-95.939
-96.451
-96.909
-97.307
-97.639
-97.898
-98.079
-98.175
-98.181
-98.091
-97.899
-97.602
-97.194
-96.672
-96.031
-95.27
-94.385
-93.375
-92.239
-90.977
-89.59
-88.078
-86.444
-84.693
-82.828
-80.854
-78.778
-76.607
-74.348
-72.011
-69.604
-67.139
-64.624
-62.073
-59.495
-56.904
-54.312
-51.729
-49.17
-46.645
-44.167
-41.748
-39.401
-37.138
-34.97
-32.909
-30.968
-29.157
-27.486
-25.966
-24.606
-23.415
-22.399
-21.566
-20.922
-20.47
-20.216
-20.162
-20.313
-20.672
-21.238
-22.011
-22.992
-24.178
-25.564
-27.146
-28.912
-30.855
-32.964
-35.23
-37.644
-40.197
-42.877
-45.673
-48.576
-51.571
-54.644
-57.779
-60.956
-64.155
-67.363
-70.565
-73.757
-76.934
-80.086
-83.204
-86.275
-89.277
-92.187
-94.977
-97.605
-100.038
-102.245
-104.195
-105.872
-107.258
-108.326
-109.058
-109.423
-109.388
-108.936
-108.061
-106.766
-105.096
-103.103
-100.849
-98.424
-95.896
-93.344
-90.872
-88.558
-86.494
-84.775
-83.446
-82.606
-82.41
-82.861
-83.852
-85.152
-86.309
-86.949
-86.817
-85.498
-82.631
-78.208
-72.454
-66.058
-60.114
-55.408
-52.576
-52.298
-54.746
-59.445
-65.363
-70.555
-72.671
-69.418
-58.18
-36.761
-3.813
39.827
90.825
147.015
206.615
269.338
336.878
402.602
455.208
483.692
475.879
433.503
367.388
286.084
199.503
108.211
10.924
-84.317
-167.902
-226.209
-252.975
-255.676
-243.217
-226.152
-209.002
-187.851
-162.278
-133.775
-105
-80.73
-62.675
-50.347
-43.769
-42.526
-45.321
-50.383
-55.721
-59.983
-62.837
-64.425
-64.555
-62.692
-58.833
-53.699
-48.36
-43.606
-39.646
-36.352
-33.655
-31.729
-30.681
-30.289
-30.057
-29.566
-28.637
-27.278
-25.585
-23.566
-21.17
-18.41
-15.379
-12.186
-8.918
-5.608
-2.242
1.173
4.604
8.001
11.3
14.461
17.467
20.305
22.971
25.465
27.783
29.927
31.918
33.773
35.506
37.128
38.642
40.047
41.356
42.59
43.78
44.959
46.161
47.423
48.787
50.295
51.981
53.869
55.968
58.274
60.787
63.501
66.425
69.578
72.975
76.625
80.53
84.688
89.076
93.666
98.413
103.264
108.184
113.164
118.222
123.413
128.797
134.443
140.398
146.688
153.325
160.314
167.654
175.333
183.36
191.753
200.556
209.838
219.643
229.979
240.81
252.052
263.599
275.338
287.18
299.05
310.901
322.706
334.465
346.212
357.967
369.72
381.42
392.964
404.255
415.217
425.807
436.017
445.853
455.314
464.382
473.035
481.224
488.866
495.828
501.915
506.928
510.707
513.152
514.224
513.901
512.158
508.96
504.27
498.055
490.3
480.99
470.1
457.625
443.597
428.117
411.38
393.606
374.988
355.682
335.803
315.459
294.78
273.892
252.915
231.968
211.17
190.671
170.666
151.34
132.857
115.317
98.738
83.114
68.443
54.736
42.013
30.281
19.516
9.696
0.811
-7.164
-14.267
-20.589
-26.273
-31.461
-36.282
-40.828
-45.145
-49.265
-53.224
-57.05
-60.764
-64.373
-67.868
-71.249
-74.529
-77.712
-80.79
-83.722
-86.435
-88.866
-90.968
-92.708
-94.078
-95.074
-95.695
-95.955
-95.882
-95.507
-94.869
-93.997
-92.911
-91.635
-90.203
-88.655
-87.043
-85.411
-83.79
-82.209
-80.689
-79.249
-77.906
-76.667
-75.528
-74.488
-73.547
-72.704
-71.964
-71.328
-70.794
-70.358
-70.016
-69.764
-69.602
-69.526
-69.532
-69.618
-69.78
-70.017
-70.326
-70.707
-71.153
-71.66
-72.222
-72.833
-73.489
-74.184
-74.91
-75.664
-76.44
-77.233
-78.04
-78.856
-79.676
-80.497
-81.316
-82.129
-82.933
-83.726
-84.504
-85.266
-86.01
-86.734
-87.435
-88.112
-88.762
-89.385
-89.977
-90.54
-91.071
-91.572
-92.042
-92.481
-92.892
-93.275
-93.632
-93.962
-94.269
-94.552
-94.814
-95.055
-95.276
-95.479
-95.664
-95.833
-95.987
-96.127
-96.253
-96.367
-96.47
-96.561
-96.642
-96.714
-96.777
-96.832
-96.88
-96.922
-96.959
-96.992
-97.022
-97.049
-97.074
-97.096
-97.114
-97.129
-97.139
-97.144
-97.143
-97.135
-97.12
-97.098
-97.069
-97.031
-96.985
-96.93
-96.867
-96.795
-96.716
-96.63
-96.537
-96.439
-96.338
-96.236
-96.135
-96.035
-95.936
-95.84
-95.746
-95.659
-95.58
-95.513
-95.458
-95.418
-95.395
-95.393
-95.414
-95.458
-95.525
-95.612
-95.72
-95.854
-96.018
-96.216
-96.448
-96.706
-96.984
-97.278
-97.583
-97.895
-98.209
-98.513
-98.803
-99.08
-99.346
-99.609
-99.865
-100.104
-100.313
-100.469
-100.573
-100.646
-100.709
-100.793
-100.898
-100.988
-101.046
-101.075
-101.07
-101.064
-101.023
-100.805
-100.445
-100.129
-100.014
-100.332
-101.065
-101.83
-102.481
-103.14
-103.598
-103.471
-102.315
-99.401
-94.719
-89.142
-83.137
-76.826
-70.624
-64.938
-60.386
-58.079
-58.115
-59.461
-61.496
-63.857
-66.114
-68.123
-69.433
-69.101
-67.017
-63.92
-60.299
-56.566
-53
-49.522
-46.296
-43.788
-42.077
-40.902
-40.074
-39.378
-38.731
-38.27
-38.022
-37.909
-37.928
-38.102
-38.46
-39.062
-39.92
-40.984
-42.226
-43.625
-45.168
-46.865
-48.715
-50.708
-52.837
-55.09
-57.456
-59.927
-62.494
-65.151
-67.889
-70.699
-73.57
-76.488
-79.443
-82.427
-85.435
-88.457
-91.484
-94.506
-97.514
-100.501
-103.457
-106.365
-109.193
-111.891
-114.411
-116.707
-118.74
-120.48
-121.895
-122.949
-123.604
-123.829
-123.602
-122.921
-121.778
-120.172
-118.124
-115.681
-112.938
-110.053
-107.177
-104.46
-102.038
-99.999
-98.446
-97.509
-97.292
-97.89
-99.372
-101.708
-104.891
-108.986
-113.89
-119.383
-125.084
-130.282
-134.29
-136.734
-137.234
-135.423
-131.323
-125.039
-116.975
-108.376
-100.431
-93.615
-88.138
-83.782
-79.56
-74.521
-67.175
-54.623
-33.858
-2.632
39.044
88.539
142.858
198.532
256.417
321.688
393.518
468.833
536.412
572.081
561.742
497.999
381.43
235.246
81.22
-59.912
-164.369
-227.715
-252.853
-249.134
-237.279
-227.461
-222.148
-219.626
-211.172
-194.807
-174.349
-153.366
-136.479
-125.159
-117.798
-113.288
-110.51
-107.999
-104.646
-99.795
-93.135
-84.937
-75.846
-66.303
-56.699
-47.681
-39.826
-33.435
-28.888
-26.333
-25.351
-25.72
-27.273
-29.235
-32.625
-38.453
-44.63
-50.457
-52.49
-46.619
-37.295
-27.473
-21.564
-25.668
-34.35
-43.01
-48.509
-45.683
-38.308
-30.244
-22.456
-17.356
-13.724
-9.926
-6.336
-2.768
0.645
3.546
6.161
8.67
11.009
13.158
15.131
16.931
18.562
20.052
21.418
22.669
23.867
25.07
26.302
27.591
28.961
30.422
31.989
33.682
35.512
37.499
39.664
42.027
44.609
47.428
50.499
53.835
57.45
61.357
65.568
70.098
74.96
80.166
85.732
91.671
98
104.738
111.897
119.475
127.469
135.865
144.642
153.78
163.241
172.977
182.943
193.095
203.397
213.829
224.358
234.944
245.539
256.084
266.537
276.881
287.098
297.172
307.106
316.912
326.634
336.355
346.127
355.977
365.901
375.856
385.814
395.759
405.667
415.516
425.258
434.812
444.106
453.079
461.626
469.612
476.842
483.055
488.048
491.676
493.834
494.469
493.515
490.892
486.553
480.475
472.65
463.091
451.788
438.712
423.912
407.501
389.676
370.713
350.84
330.232
309.05
287.432
265.54
243.556
221.627
199.877
178.451
157.514
137.283
117.996
99.811
82.814
67.024
52.395
38.911
26.578
15.385
5.308
-3.699
-11.695
-18.714
-24.784
-29.979
-34.416
-38.271
-41.733
-44.933
-47.956
-50.853
-53.646
-56.371
-59.062
-61.724
-64.347
-66.918
-69.429
-71.89
-74.309
-76.664
-78.902
-80.937
-82.692
-84.122
-85.202
-85.925
-86.289
-86.295
-85.957
-85.312
-84.403
-83.266
-81.93
-80.414
-78.741
-76.944
-75.068
-73.164
-71.273
-69.424
-67.64
-65.94
-64.34
-62.85
-61.471
-60.196
-59.016
-57.927
-56.926
-56.014
-55.189
-54.445
-53.777
-53.178
-52.643
-52.17
-51.752
-51.385
-51.065
-50.787
-50.55
-50.353
-50.193
-50.066
-49.968
-49.895
-49.843
-49.809
-49.787
-49.775
-49.77
-49.77
-49.773
-49.78
-49.789
-49.802
-49.819
-49.841
-49.87
-49.906
-49.953
-50.01
-50.079
-50.162
-50.261
-50.374
-50.505
-50.652
-50.817
-50.999
-51.201
-51.421
-51.659
-51.917
-52.195
-52.491
-52.807
-53.142
-53.495
-53.867
-54.255
-54.66
-55.079
-55.511
-55.954
-56.404
-56.859
-57.315
-57.77
-58.22
-58.662
-59.091
-59.507
-59.905
-60.283
-60.638
-60.969
-61.274
-61.551
-61.799
-62.018
-62.206
-62.364
-62.491
-62.588
-62.654
-62.69
-62.697
-62.675
-62.624
-62.546
-62.442
-62.313
-62.161
-61.987
-61.794
-61.584
-61.36
-61.125
-60.881
-60.632
-60.381
-60.131
-59.885
-59.644
-59.413
-59.193
-58.986
-58.794
-58.619
-58.461
-58.322
-58.201
-58.1
-58.019
-57.957
-57.913
-57.889
-57.884
-57.897
-57.928
-57.978
-58.045
-58.13
-58.232
-58.349
-58.482
-58.629
-58.789
-58.959
-59.139
-59.326
-59.519
-59.715
-59.914
-60.113
-60.31
-60.504
-60.694
-60.879
-61.057
-61.228
-61.392
-61.549
-61.7
-61.844
-61.983
-62.118
-62.249
-62.376
-62.502
-62.626
-62.748
-62.869
-62.991
-63.112
-63.233
-63.356
-63.481
-63.61
-63.742
-63.88
-64.024
-64.177
-64.341
-64.516
-64.704
-64.909
-65.13
-65.37
-65.63
-65.912
-66.215
-66.541
-66.89
-67.259
-67.65
-68.06
-68.488
-68.932
-69.39
-69.86
-70.339
-70.824
-71.314
-71.806
-72.296
-72.782
-73.261
-73.729
-74.183
-74.619
-75.032
-75.418
-75.773
-76.091
-76.369
-76.599
-76.776
-76.896
-76.953
-76.94
-76.853
-76.686
-76.436
-76.099
-75.67
-75.148
-74.53
-73.815
-73.002
-72.093
-71.087
-69.986
-68.793
-67.509
-66.139
-64.685
-63.153
-61.546
-59.87
-58.131
-56.335
-54.49
-52.603
-50.681
-48.734
-46.769
-44.798
-42.829
-40.873
-38.94
-37.04
-35.186
-33.387
-31.654
-29.998
-28.429
-26.955
-25.587
-24.332
-23.198
-22.191
-21.317
-20.582
-19.99
-19.545
-19.249
-19.105
-19.114
-19.279
-19.603
-20.086
-20.729
-21.534
-22.498
-23.623
-24.904
-26.338
-27.916
-29.633
-31.48
-33.451
-35.54
-37.738
-40.039
-42.433
-44.913
-47.47
-50.092
-52.763
-55.469
-58.194
-60.93
-63.678
-66.436
-69.202
-71.972
-74.743
-77.503
-80.234
-82.91
-85.487
-87.927
-90.191
-92.246
-94.074
-95.65
-96.948
-97.939
-98.584
-98.849
-98.712
-98.153
-97.153
-95.727
-93.933
-91.854
-89.621
-87.352
-85.127
-83.045
-81.222
-79.77
-78.81
-78.456
-78.764
-79.835
-81.853
-84.871
-88.797
-93.334
-97.917
-101.996
-105.155
-106.885
-106.619
-104.153
-99.621
-93.788
-87.98
-83.244
-80.571
-80.82
-84.376
-91.242
-99.196
-104.796
-106.003
-99.937
-86.875
-67.652
-36.058
11.302
78.125
166.39
264.023
360.141
446.331
515.743
572.656
619.524
651.983
660.28
630.291
552.51
428.35
274.196
114.05
-27.199
-130.506
-192.381
-220.203
-227.743
-228.197
-226.247
-220.098
-204.633
-177.839
-142.915
-105.541
-72.152
-46.062
-27.886
-18.021
-15.933
-20.278
-29.434
-40.847
-51.918
-61.431
-68.635
-72.616
-73.038
-70.055
-64.212
-56.879
-49.58
-43.031
-37.619
-33.701
-31.317
-30.452
-30.989
-32.385
-33.969
-35.345
-36.3
-36.741
-36.723
-36.248
-35.284
-33.892
-32.177
-30.221
-28.081
-25.768
-23.262
-20.566
-17.722
-14.786
-11.83
-8.921
-6.094
-3.375
-0.782
1.671
3.971
6.114
8.112
9.986
11.745
13.394
14.929
16.352
17.681
18.945
20.173
21.4
22.655
23.975
25.413
27.012
28.816
30.85
33.118
35.633
38.41
41.462
44.809
48.451
52.362
56.527
60.935
65.563
70.396
75.385
80.454
85.548
90.618
95.65
100.667
105.661
110.623
115.555
120.449
125.368
130.42
135.662
141.15
146.932
153.019
159.548
166.699
174.447
182.787
191.663
200.925
210.731
221.304
232.556
244.431
257.107
270.589
285.092
300.924
317.604
334.6
351.778
368.859
385.418
401.224
415.68
428.136
438.958
448.518
456.792
463.912
469.945
474.845
478.974
482.738
485.738
487.601
488.216
487.356
485.044
481.386
476.17
469.196
460.653
450.714
439.513
427.286
414.058
399.824
384.746
368.95
352.503
335.497
317.979
299.985
281.629
263.021
244.269
225.512
206.867
188.452
170.399
152.798
135.745
119.342
103.643
88.707
74.59
61.329
48.963
37.524
27.016
17.439
8.772
0.955
-6.086
-12.453
-18.248
-23.546
-28.429
-32.982
-37.266
-41.334
-45.235
-48.994
-52.637
-56.188
-59.661
-63.067
-66.401
-69.64
-72.742
-75.65
-78.312
-80.697
-82.775
-84.52
-85.915
-86.954
-87.644
-88.009
-88.071
-87.852
-87.374
-86.66
-85.74
-84.651
-83.435
-82.14
-80.806
-79.463
-78.141
-76.862
-75.648
-74.512
-73.461
-72.493
-71.608
-70.806
-70.087
-69.455
-68.905
-68.436
-68.04
-67.715
-67.456
-67.259
-67.12
-67.035
-67.001
-67.015
-67.073
-67.174
-67.316
-67.494
-67.704
-67.941
-68.2
-68.477
-68.767
-69.067
-69.371
-69.676
-69.981
-70.281
-70.577
-70.866
-71.146
-71.419
-71.683
-71.939
-72.187
-72.426
-72.657
-72.88
-73.094
-73.3
-73.496
-73.684
-73.862
-74.032
-74.193
-74.346
-74.493
-74.633
-74.768
-74.899
-75.025
-75.148
-75.268
-75.387
-75.503
-75.619
-75.734
-75.849
-75.963
-76.078
-76.192
-76.305
-76.416
-76.524
-76.628
-76.728
-76.822
-76.91
-76.993
-77.069
-77.139
-77.204
-77.262
-77.316
-77.364
-77.407
-77.445
-77.478
-77.506
-77.53
-77.549
-77.565
-77.578
-77.588
-77.595
-77.601
-77.606
-77.609
-77.611
-77.612
-77.612
-77.611
-77.61
-77.608
-77.608
-77.608
-77.611
-77.616
-77.624
-77.635
-77.65
-77.668
-77.691
-77.718
-77.749
-77.784
-77.825
-77.871
-77.923
-77.981
-78.045
-78.115
-78.191
-78.272
-78.358
-78.448
-78.543
-78.641
-78.743
-78.848
-78.957
-79.069
-79.185
-79.304
-79.426
-79.551
-79.678
-79.808
-79.939
-80.071
-80.203
-80.335
-80.466
-80.595
-80.72
-80.841
-80.956
-81.062
-81.159
-81.244
-81.316
-81.373
-81.413
-81.436
-81.44
-81.425
-81.389
-81.333
-81.256
-81.157
-81.037
-80.894
-80.728
-80.541
-80.33
-80.097
-79.842
-79.565
-79.266
-78.947
-78.607
-78.248
-77.87
-77.475
-77.064
-76.639
-76.201
-75.753
-75.299
-74.839
-74.379
-73.92
-73.465
-73.019
-72.583
-72.16
-71.753
-71.363
-70.993
-70.646
-70.322
-70.023
-69.75
-69.506
-69.291
-69.106
-68.951
-68.828
-68.736
-68.677
-68.651
-68.658
-68.698
-68.772
-68.881
-69.024
-69.202
-69.413
-69.657
-69.934
-70.241
-70.578
-70.942
-71.332
-71.747
-72.184
-72.64
-73.115
-73.605
-74.108
-74.622
-75.145
-75.673
-76.204
-76.736
-77.265
-77.789
-78.306
-78.811
-79.302
-79.776
-80.229
-80.656
-81.055
-81.419
-81.745
-82.027
-82.261
-82.441
-82.562
-82.618
-82.606
-82.519
-82.354
-82.105
-81.768
-81.339
-80.814
-80.19
-79.463
-78.632
-77.694
-76.648
-75.494
-74.23
-72.859
-71.382
-69.799
-68.114
-66.329
-64.449
-62.477
-60.42
-58.283
-56.073
-53.796
-51.462
-49.08
-46.66
-44.212
-41.746
-39.275
-36.81
-34.363
-31.948
-29.575
-27.258
-25.008
-22.84
-20.764
-18.792
-16.936
-15.205
-13.609
-12.158
-10.858
-9.718
-8.744
-7.939
-7.311
-6.862
-6.595
-6.513
-6.617
-6.907
-7.387
-8.056
-8.914
-9.96
-11.193
-12.609
-14.205
-15.977
-17.916
-20.013
-22.259
-24.643
-27.159
-29.795
-32.544
-35.395
-38.339
-41.365
-44.466
-47.629
-50.836
-54.072
-57.324
-60.583
-63.852
-67.129
-70.409
-73.69
-76.962
-80.216
-83.433
-86.585
-89.629
-92.522
-95.227
-97.716
-99.977
-101.99
-103.737
-105.187
-106.298
-107.041
-107.401
-107.363
-106.918
-106.08
-104.898
-103.461
-101.9
-100.339
-98.86
-97.548
-96.486
-95.758
-95.466
-95.722
-96.603
-98.211
-100.712
-104.135
-108.38
-113.203
-118.082
-122.452
-125.867
-127.708
-127.281
-124.424
-119.333
-112.656
-105.809
-99.934
-95.764
-94.443
-96.946
-103.07
-111.807
-121.079
-127.504
-128.115
-120.103
-99.884
-64.305
-13.226
50.677
123.846
202.71
288.407
384.096
486.754
585.675
661.592
694.679
675.688
609.409
513.348
406.51
301.306
202.298
107.039
14.747
-70.496
-142.91
-196.541
-229.176
-242.568
-239.908
-225.345
-202.978
-177.221
-152.571
-131.913
-116.58
-106.756
-101.632
-100.085
-100.898
-102.19
-101.936
-99.084
-93.363
-85.086
-75.063
-64.025
-52.578
-41.531
-31.699
-23.533
-17.215
-12.711
-9.815
-8.368
-8.244
-9.237
-11.122
-13.699
-16.762
-20.12
-23.589
-26.965
-30.084
-32.833
-35.141
-36.959
-38.252
-38.981
-39.106
-38.619
-37.529
-35.86
-33.646
-30.926
-27.77
-24.272
-20.559
-16.759
-12.961
-9.227
-5.59
-2.075
1.296
4.503
7.53
10.38
13.055
15.561
17.9
20.076
22.108
24.031
25.896
27.758
29.66
31.631
33.696
35.872
38.181
40.639
43.256
46.034
48.981
52.111
55.439
58.985
62.761
66.778
71.042
75.56
80.344
85.403
90.743
96.374
102.305
108.553
115.139
122.079
129.375
137.026
145.02
153.343
161.972
170.875
180.003
189.31
198.752
208.294
217.912
227.573
237.237
246.857
256.38
265.772
275.021
284.122
293.071
301.887
310.602
319.279
328.015
336.877
345.902
355.109
364.485
374.028
383.741
393.618
403.646
413.788
423.973
434.119
444.134
453.871
463.145
471.727
479.334
485.742
490.785
494.32
496.234
496.419
494.77
491.201
485.655
478.082
468.445
456.745
443.015
427.372
410.01
391.171
371.156
350.221
328.573
306.422
283.969
261.41
238.94
216.749
195.015
173.949
153.797
134.759
116.987
100.562
85.483
71.717
59.198
47.87
37.685
28.589
20.515
13.404
7.201
1.831
-2.791
-6.804
-10.409
-13.763
-16.984
-20.153
-23.298
-26.437
-29.584
-32.734
-35.871
-38.98
-42.041
-45.047
-48.006
-50.903
-53.711
-56.368
-58.775
-60.863
-62.589
-63.928
-64.878
-65.44
-65.619
-65.44
-64.948
-64.181
-63.175
-61.958
-60.545
-58.965
-57.255
-55.46
-53.637
-51.828
-50.065
-48.376
-46.782
-45.3
-43.944
-42.716
-41.609
-40.619
-39.743
-38.983
-38.341
-37.818
-37.408
-37.107
-36.909
-36.811
-36.808
-36.894
-37.064
-37.313
-37.634
-38.026
-38.484
-39.004
-39.578
-40.201
-40.863
-41.557
-42.275
-43.009
-43.751
-44.492
-45.225
-45.945
-46.644
-47.319
-47.962
-48.57
-49.139
-49.664
-50.144
-50.575
-50.954
-51.28
-51.551
-51.765
-51.92
-52.015
-52.05
-52.022
-51.933
-51.783
-51.574
-51.305
-50.981
-50.604
-50.177
-49.703
-49.187
-48.633
-48.044
-47.427
-46.784
-46.122
-45.444
-44.755
-44.06
-43.362
-42.666
-41.975
-41.295
-40.627
-39.976
-39.345
-38.737
-38.156
-37.604
-37.085
-36.602
-36.157
-35.755
-35.396
-35.083
-34.819
-34.604
-34.44
-34.325
-34.261
-34.246
-34.28
-34.361
-34.488
-34.658
-34.871
-35.123
-35.412
-35.736
-36.094
-36.481
-36.895
-37.334
-37.794
-38.275
-38.772
-39.283
-39.806
-40.339
-40.879
-41.423
-41.968
-42.512
-43.052
-43.584
-44.107
-44.617
-45.112
-45.592
-46.053
-46.496
-46.921
-47.325
-47.71
-48.076
-48.423
-48.751
-49.062
-49.355
-49.631
-49.893
-50.14
-50.374
-50.597
-50.809
-51.013
-51.208
-51.396
-51.579
-51.756
-51.929
-52.1
-52.269
-52.439
-52.611
-52.787
-52.968
-53.158
-53.357
-53.566
-53.787
-54.02
-54.266
-54.525
-54.796
-55.081
-55.379
-55.689
-56.01
-56.343
-56.685
-57.036
-57.395
-57.759
-58.127
-58.499
-58.871
-59.244
-59.616
-59.985
-60.351
-60.713
-61.07
-61.419
-61.76
-62.09
-62.409
-62.714
-63.002
-63.274
-63.526
-63.757
-63.967
-64.155
-64.32
-64.461
-64.579
-64.674
-64.746
-64.796
-64.825
-64.835
-64.827
-64.803
-64.767
-64.72
-64.667
-64.609
-64.551
-64.495
-64.443
-64.398
-64.364
-64.343
-64.337
-64.351
-64.386
-64.446
-64.533
-64.652
-64.804
-64.992
-65.218
-65.485
-65.792
-66.142
-66.535
-66.971
-67.45
-67.97
-68.53
-69.128
-69.761
-70.425
-71.116
-71.827
-72.554
-73.29
-74.027
-74.757
-75.475
-76.171
-76.838
-77.467
-78.051
-78.583
-79.053
-79.454
-79.777
-80.015
-80.16
-80.204
-80.14
-79.962
-79.664
-79.24
-78.686
-77.998
-77.173
-76.208
-75.103
-73.856
-72.468
-70.94
-69.277
-67.481
-65.558
-63.515
-61.36
-59.102
-56.752
-54.32
-51.818
-49.258
-46.654
-44.019
-41.366
-38.709
-36.063
-33.442
-30.86
-28.333
-25.876
-23.501
-21.224
-19.058
-17.017
-15.114
-13.361
-11.769
-10.349
-9.112
-8.066
-7.222
-6.585
-6.163
-5.963
-5.99
-6.25
-6.746
-7.481
-8.454
-9.667
-11.117
-12.8
-14.708
-16.832
-19.163
-21.694
-24.416
-27.319
-30.393
-33.624
-37
-40.508
-44.134
-47.86
-51.662
-55.519
-59.416
-63.342
-67.298
-71.277
-75.269
-79.262
-83.24
-87.187
-91.086
-94.906
-98.603
-102.138
-105.477
-108.594
-111.479
-114.106
-116.439
-118.437
-120.045
-121.229
-121.967
-122.241
-122.043
-121.393
-120.325
-118.898
-117.201
-115.314
-113.325
-111.338
-109.447
-107.757
-106.382
-105.46
-105.199
-105.726
-107.014
-108.888
-111.007
-112.987
-114.555
-115.369
-114.854
-112.646
-108.842
-103.985
-99.189
-95.577
-93.731
-94.168
-97.695
-104.729
-114.749
-126.132
-136.108
-141.789
-140.906
-130.993
-109.082
-72.507
-21.318
41.183
111.038
185.358
266.069
357.079
455.951
552.114
626.538
659.681
642.686
580.269
489.055
387.096
285.905
189.213
93.952
-0.907
-91.29
-170.992
-232.788
-273.092
-292.759
-293.87
-279.151
-252.155
-217.144
-179.036
-142.771
-111.559
-86.729
-69.176
-59.622
-57.707
-62.023
-70.104
-78.789
-86.162
-91.615
-94.587
-94.524
-91.304
-85.19
-77.254
-69.264
-62.248
-56.497
-52.193
-49.373
-48.039
-48.191
-49.454
-51.099
-52.626
-53.775
-54.419
-54.594
-54.296
-53.459
-52.097
-50.288
-48.117
-45.661
-42.963
-40.022
-36.854
-33.499
-30.014
-26.474
-22.947
-19.491
-16.141
-12.918
-9.838
-6.911
-4.146
-1.547
0.897
3.208
5.396
7.468
9.434
11.303
13.094
14.836
16.552
18.267
19.999
21.767
23.589
25.485
27.473
29.567
31.783
34.132
36.63
39.295
42.143
45.192
48.461
51.966
55.723
59.747
64.054
68.657
73.572
78.809
84.377
90.287
96.549
103.175
110.184
117.582
125.367
133.532
142.065
150.947
160.154
169.653
179.394
189.337
199.438
209.663
219.988
230.38
240.796
251.191
261.506
271.701
281.757
291.655
301.379
310.935
320.338
329.63
338.888
348.159
357.466
366.815
376.182
385.555
394.931
404.301
413.654
422.965
432.175
441.221
450.032
458.495
466.462
473.749
480.108
485.338
489.291
491.834
492.869
492.299
490.017
485.93
479.974
472.1
462.279
450.515
436.827
421.301
404.088
385.389
365.48
344.617
323.016
300.888
278.442
255.887
233.453
211.378
189.856
169.081
149.254
130.533
113.062
96.931
82.162
68.733
56.571
45.59
35.72
26.89
19.006
11.966
5.646
-0.106
-5.403
-10.358
-15.107
-19.751
-24.381
-29.069
-33.839
-38.69
-43.607
-48.557
-53.512
-58.446
-63.316
-68.071
-72.653
-76.979
-80.997
-84.662
-87.924
-90.752
-93.124
-95.024
-96.461
-97.461
-98.046
-98.249
-98.103
-97.638
-96.892
-95.909
-94.734
-93.422
-92.017
-90.552
-89.061
-87.569
-86.098
-84.668
-83.289
-81.963
-80.695
-79.489
-78.35
-77.283
-76.29
-75.369
-74.521
-73.741
-73.029
-72.382
-71.802
-71.287
-70.837
-70.452
-70.131
-69.876
-69.687
-69.562
-69.496
-69.487
-69.528
-69.617
-69.749
-69.917
-70.117
-70.344
-70.594
-70.863
-71.146
-71.441
-71.742
-72.048
-72.353
-72.656
-72.954
-73.246
-73.529
-73.801
-74.061
-74.307
-74.539
-74.754
-74.951
-75.13
-75.289
-75.429
-75.548
-75.648
-75.728
-75.79
-75.833
-75.86
-75.871
-75.869
-75.854
-75.829
-75.795
-75.755
-75.711
-75.664
-75.616
-75.569
-75.524
-75.482
-75.444
-75.41
-75.381
-75.358
-75.342
-75.331
-75.328
-75.332
-75.343
-75.362
-75.388
-75.422
-75.463
-75.511
-75.565
-75.626
-75.693
-75.765
-75.841
-75.92
-76.002
-76.086
-76.168
-76.249
-76.327
-76.399
-76.464
-76.521
-76.568
-76.604
-76.629
-76.641
-76.64
-76.625
-76.597
-76.554
-76.498
-76.427
-76.343
-76.245
-76.135
-76.012
-75.879
-75.736
-75.583
-75.423
-75.256
-75.083
-74.906
-74.725
-74.542
-74.359
-74.176
-73.996
-73.821
-73.652
-73.49
-73.339
-73.198
-73.069
-72.953
-72.851
-72.764
-72.691
-72.633
-72.59
-72.563
-72.549
-72.55
-72.564
-72.59
-72.626
-72.672
-72.726
-72.786
-72.85
-72.917
-72.985
-73.052
-73.116
-73.178
-73.234
-73.283
-73.325
-73.357
-73.379
-73.389
-73.387
-73.371
-73.343
-73.303
-73.25
-73.186
-73.113
-73.031
-72.942
-72.85
-72.754
-72.659
-72.567
-72.48
-72.402
-72.335
-72.284
-72.251
-72.241
-72.254
-72.296
-72.368
-72.472
-72.61
-72.785
-72.997
-73.247
-73.536
-73.864
-74.23
-74.635
-75.076
-75.55
-76.056
-76.588
-77.142
-77.714
-78.298
-78.887
-79.474
-80.053
-80.616
-81.156
-81.663
-82.129
-82.545
-82.903
-83.193
-83.408
-83.537
-83.574
-83.511
-83.341
-83.057
-82.654
-82.126
-81.469
-80.68
-79.755
-78.693
-77.493
-76.154
-74.678
-73.067
-71.325
-69.456
-67.466
-65.363
-63.155
-60.85
-58.459
-55.993
-53.465
-50.886
-48.27
-45.632
-42.987
-40.35
-37.735
-35.159
-32.636
-30.183
-27.814
-25.544
-23.388
-21.358
-19.468
-17.732
-16.16
-14.764
-13.554
-12.539
-11.727
-11.129
-10.751
-10.6
-10.68
-10.997
-11.553
-12.348
-13.383
-14.652
-16.148
-17.864
-19.792
-21.926
-24.255
-26.77
-29.457
-32.305
-35.301
-38.43
-41.677
-45.019
-48.436
-51.911
-55.435
-58.999
-62.598
-66.218
-69.846
-73.469
-77.065
-80.611
-84.076
-87.419
-90.601
-93.59
-96.358
-98.883
-101.144
-103.108
-104.737
-105.993
-106.848
-107.28
-107.277
-106.84
-106.002
-104.814
-103.354
-101.712
-99.953
-98.154
-96.405
-94.797
-93.433
-92.431
-91.865
-91.838
-92.511
-93.912
-95.961
-98.451
-100.923
-102.963
-104.328
-104.639
-103.464
-100.756
-96.652
-91.668
-86.985
-83.401
-81.225
-80.976
-83.025
-87.031
-92.346
-97.443
-99.565
-96.622
-87.22
-69.515
-41.817
-3.14
46.955
106.074
168.671
230.231
287.93
342.596
397.889
453.152
501.582
529.925
522.006
469.02
373.962
249.339
115.977
-5.485
-103.22
-170.294
-208.72
-228.229
-235.291
-236.072
-232.931
-222.283
-203.718
-179.044
-151.708
-127.183
-108.243
-95.28
-87.766
-84.144
-83.125
-83.401
-83.321
-81.96
-78.996
-74.51
-69.021
-62.998
-56.818
-51.039
-46.261
-42.771
-40.612
-39.613
-39.445
-39.866
-40.677
-41.64
-42.519
-43.101
-43.252
-42.925
-42.124
-40.854
-39.118
-36.919
-34.277
-31.247
-27.888
-24.263
-20.432
-16.445
-12.365
-8.261
-4.2
-0.252
3.535
7.13
10.515
13.675
16.606
19.302
21.767
24.017
26.067
27.926
29.608
31.12
32.476
33.694
34.795
35.8
36.728
37.599
38.433
39.25
40.074
40.925
41.825
42.792
43.85
45.022
46.334
47.809
49.471
51.342
53.447
55.81
58.454
61.399
64.664
68.267
72.223
76.551
81.266
86.378
91.898
97.837
104.21
111.032
118.312
126.047
134.229
142.844
151.869
161.281
171.041
181.098
191.405
201.914
212.588
223.4
234.311
245.275
256.24
267.143
277.94
288.606
299.117
309.451
319.604
329.582
339.423
349.195
358.939
368.668
378.37
388.006
397.553
406.993
416.305
425.468
434.436
443.141
451.529
459.535
467.055
473.956
480.049
485.102
488.939
491.435
492.497
492.066
490.067
486.429
481.109
474.075
465.309
454.799
442.52
428.47
412.726
395.421
376.76
356.997
336.344
314.971
293.048
270.738
248.218
225.665
203.235
181.083
159.387
138.36
118.231
99.194
81.364
64.795
49.49
35.416
22.557
10.902
0.416
-8.949
-17.245
-24.527
-30.845
-36.268
-40.91
-44.94
-48.535
-51.837
-54.945
-57.915
-60.786
-63.587
-66.342
-69.06
-71.729
-74.338
-76.878
-79.352
-81.761
-84.087
-86.284
-88.271
-89.976
-91.355
-92.382
-93.051
-93.362
-93.317
-92.935
-92.25
-91.307
-90.143
-88.79
-87.271
-85.611
-83.845
-82.019
-80.183
-78.382
-76.646
-75
-73.464
-72.054
-70.783
-69.654
-68.66
-67.794
-67.051
-66.427
-65.923
-65.536
-65.258
-65.081
-64.995
-64.995
-65.075
-65.226
-65.442
-65.716
-66.041
-66.413
-66.828
-67.282
-67.767
-68.278
-68.808
-69.351
-69.902
-70.454
-71.003
-71.542
-72.069
-72.579
-73.07
-73.54
-73.985
-74.405
-74.799
-75.166
-75.506
-75.821
-76.111
-76.377
-76.622
-76.845
-77.05
-77.236
-77.405
-77.559
-77.699
-77.826
-77.943
-78.051
-78.15
-78.244
-78.332
-78.417
-78.498
-78.577
-78.652
-78.725
-78.794
-78.86
-78.922
-78.978
-79.028
-79.072
-79.107
-79.133
-79.149
-79.153
-79.143
-79.118
-79.076
-79.016
-78.938
-78.839
-78.719
-78.578
-78.416
-78.233
-78.03
-77.806
-77.564
-77.303
-77.026
-76.733
-76.426
-76.107
-75.78
-75.446
-75.109
-74.774
-74.443
-74.12
-73.81
-73.517
-73.244
-72.996
-72.776
-72.587
-72.434
-72.32
-72.248
-72.222
-72.243
-72.316
-72.442
-72.622
-72.857
-73.149
-73.496
-73.899
-74.355
-74.863
-75.421
-76.026
-76.676
-77.367
-78.096
-78.857
-79.646
-80.457
-81.284
-82.12
-82.958
-83.79
-84.608
-85.405
-86.173
-86.904
-87.59
-88.223
-88.795
-89.3
-89.729
-90.075
-90.331
-90.491
-90.549
-90.498
-90.336
-90.057
-89.661
-89.144
-88.506
-87.747
-86.868
-85.869
-84.752
-83.52
-82.177
-80.727
-79.173
-77.523
-75.784
-73.962
-72.068
-70.11
-68.097
-66.042
-63.955
-61.846
-59.727
-57.61
-55.507
-53.43
-51.391
-49.403
-47.479
-45.63
-43.868
-42.206
-40.655
-39.225
-37.924
-36.762
-35.745
-34.882
-34.178
-33.637
-33.266
-33.068
-33.048
-33.214
-33.568
-34.114
-34.854
-35.791
-36.923
-38.249
-39.764
-41.458
-43.324
-45.353
-47.538
-49.872
-52.343
-54.939
-57.649
-60.461
-63.358
-66.326
-69.344
-72.39
-75.448
-78.507
-81.561
-84.614
-87.667
-90.713
-93.747
-96.759
-99.736
-102.661
-105.509
-108.24
-110.82
-113.222
-115.419
-117.389
-119.104
-120.527
-121.616
-122.323
-122.605
-122.436
-121.82
-120.767
-119.304
-117.473
-115.308
-112.889
-110.334
-107.746
-105.241
-102.954
-100.975
-99.462
-98.671
-98.699
-99.512
-100.942
-102.526
-103.835
-104.625
-104.44
-102.713
-99.391
-94.741
-89.52
-85.293
-83.256
-84.105
-88.86
-98.28
-111.933
-128.567
-145.813
-160.011
-167.953
-166.671
-152.586
-122.706
-77.173
-19.008
48.009
120.235
198.947
287.667
383.621
476.446
547.503
577.528
558.053
494.6
404.678
307.012
213.68
128.367
47.241
-31.865
-106.636
-172.739
-224.097
-258.015
-275.905
-279.846
-272.57
-256.712
-234.218
-207.608
-180.008
-153.409
-128.912
-107.673
-90.14
-76.607
-67.811
-63.573
-62.74
-64.565
-68.151
-72.144
-75.93
-78.909
-79.977
-78.773
-75.545
-70.471
-64.266
-57.963
-51.968
-46.612
-42.389
-39.376
-37.513
-36.719
-36.522
-36.369
-36.011
-35.294
-34.133
-32.586
-30.653
-28.328
-25.723
-22.957
-20.109
-17.232
-14.326
-11.377
-8.41
-5.475
-2.632
0.072
2.619
5.001
7.219
9.273
11.162
12.898
14.506
16.005
17.409
18.732
19.979
21.162
22.306
23.434
24.572
25.75
26.988
28.309
29.733
31.277
32.955
34.783
36.774
38.942
41.306
43.883
46.691
49.749
53.071
56.675
60.575
64.783
69.31
74.167
79.366
84.921
90.854
97.177
103.897
111.014
118.523
126.412
134.661
143.242
152.112
161.231
170.559
180.065
189.726
199.514
209.399
219.341
229.293
239.213
249.072
258.85
268.537
278.135
287.659
297.153
306.692
316.34
326.149
336.143
346.306
356.62
367.064
377.615
388.251
398.94
409.627
420.254
430.753
441.025
450.948
460.343
468.969
476.6
483.019
488.061
491.622
493.609
493.93
492.516
489.312
484.272
477.369
468.57
457.829
445.155
430.609
414.327
396.537
377.473
357.375
336.453
314.873
292.808
270.442
247.945
225.47
203.189
181.275
159.944
139.462
120.038
101.822
84.9
69.273
54.929
41.842
29.981
19.322
9.824
1.429
-5.912
-12.241
-17.632
-22.183
-26.048
-29.445
-32.548
-35.487
-38.357
-41.204
-44.065
-46.971
-49.933
-52.945
-55.996
-59.072
-62.167
-65.29
-68.423
-71.53
-74.541
-77.35
-79.879
-82.082
-83.925
-85.398
-86.496
-87.218
-87.584
-87.635
-87.407
-86.933
-86.238
-85.336
-84.255
-83.032
-81.71
-80.345
-78.978
-77.637
-76.348
-75.129
-73.993
-72.95
-72.002
-71.135
-70.344
-69.624
-68.973
-68.392
-67.881
-67.43
-67.036
-66.69
-66.388
-66.125
-65.897
-65.698
-65.524
-65.373
-65.243
-65.134
-65.046
-64.976
-64.921
-64.878
-64.845
-64.818
-64.795
-64.773
-64.75
-64.725
-64.697
-64.665
-64.631
-64.593
-64.551
-64.508
-64.465
-64.421
-64.379
-64.341
-64.307
-64.28
-64.262
-64.254
-64.258
-64.275
-64.309
-64.359
-64.429
-64.518
-64.629
-64.763
-64.92
-65.1
-65.305
-65.535
-65.79
-66.069
-66.372
-66.7
-67.052
-67.426
-67.822
-68.238
-68.673
-69.125
-69.593
-70.075
-70.569
-71.072
-71.583
-72.1
-72.619
-73.139
-73.656
-74.167
-74.67
-75.161
-75.637
-76.096
-76.534
-76.948
-77.337
-77.697
-78.026
-78.323
-78.585
-78.811
-78.999
-79.148
-79.259
-79.329
-79.358
-79.348
-79.297
-79.206
-79.076
-78.906
-78.699
-78.455
-78.175
-77.86
-77.513
-77.136
-76.73
-76.298
-75.844
-75.371
-74.883
-74.382
-73.875
-73.364
-72.853
-72.349
-71.854
-71.373
-70.91
-70.47
-70.056
-69.673
-69.322
-69.009
-68.734
-68.5
-68.309
-68.162
-68.06
-68.004
-67.993
-68.027
-68.106
-68.229
-68.394
-68.598
-68.841
-69.118
-69.427
-69.763
-70.121
-70.497
-70.885
-71.279
-71.673
-72.059
-72.431
-72.781
-73.102
-73.385
-73.624
-73.811
-73.937
-73.996
-73.981
-73.884
-73.7
-73.425
-73.052
-72.579
-72.002
-71.32
-70.53
-69.632
-68.626
-67.513
-66.294
-64.971
-63.547
-62.026
-60.412
-58.711
-56.93
-55.075
-53.155
-51.178
-49.154
-47.093
-45.007
-42.906
-40.802
-38.707
-36.635
-34.599
-32.611
-30.686
-28.836
-27.074
-25.413
-23.864
-22.44
-21.15
-20.003
-19.01
-18.177
-17.513
-17.023
-16.714
-16.59
-16.656
-16.918
-17.381
-18.048
-18.922
-20.004
-21.296
-22.797
-24.504
-26.409
-28.504
-30.781
-33.23
-35.844
-38.614
-41.529
-44.576
-47.745
-51.024
-54.397
-57.849
-61.359
-64.905
-68.471
-72.045
-75.626
-79.211
-82.792
-86.362
-89.91
-93.416
-96.857
-100.201
-103.4
-106.41
-109.189
-111.701
-113.926
-115.838
-117.41
-118.608
-119.395
-119.74
-119.621
-119.022
-117.947
-116.437
-114.551
-112.379
-110.039
-107.616
-105.216
-102.964
-100.964
-99.342
-98.225
-97.68
-97.824
-98.834
-100.738
-103.463
-106.758
-110.066
-112.87
-114.788
-115.31
-113.952
-110.611
-105.408
-99.049
-92.95
-88.295
-85.939
-86.68
-90.827
-97.859
-106.685
-115.097
-119.732
-117.369
-105.093
-80.329
-41.551
11.276
76.985
152.864
234.475
316.567
393.333
458.802
507.677
536.291
542.235
524.164
482.548
419.64
339.452
247.505
149.872
51.719
-42.063
-126.15
-195.921
-248.071
-281.399
-296.954
-296.904
-283.136
-257.981
-225.194
-189.295
-154.822
-124.709
-100.006
-81.041
-68.304
-62.17
-61.923
-65.51
-70.15
-74.053
-76.613
-77.672
-77.055
-74.233
-69.051
-62.346
-55.584
-49.793
-45.371
-42.285
-40.313
-39.555
-40.089
-41.598
-43.488
-45.212
-46.463
-47.184
-47.457
-47.28
-46.604
-45.419
-43.77
-41.745
-39.399
-36.773
-33.911
-30.846
-27.644
-24.382
-21.132
-17.973
-14.964
-12.13
-9.475
-6.998
-4.687
-2.547
-0.584
1.208
2.831
4.295
5.63
6.856
7.993
9.072
10.126
11.187
12.294
13.472
14.732
16.091
17.562
19.162
20.915
22.837
24.948
27.263
29.799
32.573
35.603
38.905
42.493
46.38
50.574
55.086
59.932
65.123
70.669
76.576
82.848
89.492
96.517
103.936
111.747
119.942
128.506
137.42
146.66
156.199
165.996
175.999
186.158
196.432
206.786
217.193
227.614
238.005
248.31
258.479
268.477
278.285
287.885
297.264
306.424
315.383
324.189
332.906
341.568
350.186
358.74
367.199
375.549
383.779
391.875
399.811
407.537
414.991
422.12
428.851
435.075
440.649
445.376
449.057
451.548
452.744
452.577
450.993
447.925
443.313
437.123
429.332
419.932
408.923
396.289
382.062
366.349
349.304
331.153
312.122
292.382
272.095
251.413
230.481
209.468
188.534
167.817
147.475
127.692
108.651
90.555
73.55
57.702
43.039
29.536
17.164
5.919
-4.219
-13.289
-21.328
-28.386
-34.521
-39.781
-44.261
-48.109
-51.47
-54.498
-57.312
-59.975
-62.538
-65.031
-67.477
-69.897
-72.298
-74.671
-77.013
-79.331
-81.621
-83.879
-86.07
-88.119
-89.966
-91.557
-92.855
-93.851
-94.539
-94.916
-94.997
-94.807
-94.374
-93.734
-92.915
-91.932
-90.809
-89.57
-88.253
-86.906
-85.569
-84.27
-83.032
-81.874
-80.808
-79.847
-78.991
-78.232
-77.564
-76.978
-76.471
-76.042
-75.688
-75.401
-75.175
-75
-74.869
-74.777
-74.719
-74.687
-74.676
-74.683
-74.705
-74.743
-74.794
-74.856
-74.928
-75.005
-75.086
-75.17
-75.252
-75.331
-75.404
-75.471
-75.531
-75.583
-75.628
-75.666
-75.697
-75.724
-75.746
-75.765
-75.783
-75.801
-75.819
-75.841
-75.866
-75.897
-75.935
-75.981
-76.037
-76.103
-76.18
-76.268
-76.368
-76.479
-76.601
-76.732
-76.871
-77.017
-77.168
-77.323
-77.481
-77.639
-77.797
-77.951
-78.101
-78.245
-78.379
-78.502
-78.613
-78.71
-78.79
-78.853
-78.897
-78.921
-78.925
-78.908
-78.869
-78.806
-78.721
-78.612
-78.479
-78.322
-78.142
-77.94
-77.716
-77.471
-77.208
-76.927
-76.631
-76.323
-76.003
-75.674
-75.339
-75
-74.659
-74.319
-73.982
-73.65
-73.325
-73.01
-72.706
-72.415
-72.138
-71.876
-71.631
-71.402
-71.191
-70.998
-70.822
-70.665
-70.526
-70.405
-70.301
-70.213
-70.141
-70.084
-70.041
-70.01
-69.991
-69.982
-69.981
-69.988
-69.999
-70.015
-70.033
-70.051
-70.068
-70.082
-70.092
-70.096
-70.092
-70.08
-70.057
-70.024
-69.978
-69.919
-69.847
-69.76
-69.659
-69.544
-69.414
-69.271
-69.115
-68.947
-68.768
-68.579
-68.381
-68.175
-67.964
-67.747
-67.525
-67.302
-67.076
-66.851
-66.627
-66.406
-66.189
-65.978
-65.774
-65.579
-65.394
-65.221
-65.062
-64.917
-64.79
-64.681
-64.592
-64.525
-64.482
-64.462
-64.468
-64.5
-64.558
-64.643
-64.754
-64.891
-65.054
-65.241
-65.451
-65.685
-65.941
-66.218
-66.514
-66.829
-67.161
-67.508
-67.869
-68.24
-68.62
-69.005
-69.393
-69.78
-70.162
-70.535
-70.895
-71.238
-71.558
-71.851
-72.112
-72.334
-72.513
-72.644
-72.723
-72.743
-72.701
-72.593
-72.415
-72.163
-71.834
-71.425
-70.933
-70.355
-69.688
-68.93
-68.079
-67.133
-66.091
-64.952
-63.716
-62.384
-60.958
-59.44
-57.833
-56.142
-54.37
-52.525
-50.613
-48.638
-46.61
-44.537
-42.425
-40.286
-38.127
-35.959
-33.79
-31.631
-29.491
-27.379
-25.306
-23.279
-21.307
-19.401
-17.569
-15.82
-14.165
-12.611
-11.17
-9.85
-8.661
-7.61
-6.706
-5.955
-5.361
-4.93
-4.665
-4.568
-4.64
-4.883
-5.299
-5.89
-6.658
-7.604
-8.726
-10.027
-11.504
-13.155
-14.975
-16.956
-19.088
-21.364
-23.779
-26.326
-28.995
-31.778
-34.662
-37.637
-40.693
-43.814
-46.983
-50.178
-53.38
-56.577
-59.766
-62.953
-66.141
-69.329
-72.512
-75.687
-78.848
-81.983
-85.069
-88.063
-90.924
-93.612
-96.096
-98.35
-100.336
-102.012
-103.319
-104.198
-104.598
-104.483
-103.84
-102.671
-101.002
-98.86
-96.293
-93.4
-90.309
-87.186
-84.182
-81.424
-78.998
-77.044
-75.835
-75.559
-76.251
-77.742
-79.603
-81.484
-83.229
-84.523
-84.787
-83.66
-81.131
-77.798
-75.005
-73.673
-74.376
-78.26
-86.471
-99.523
-115.48
-129.482
-136.616
-134.497
-127.023
-120.259
-115.006
-106.361
-79.424
-17.808
84.331
225.025
388.914
551.827
692.914
791.065
831.058
810.358
731.05
603.818
449.659
285.807
131.907
8.494
-78.901
-128.21
-145.445
-149.129
-148.041
-146.309
-145.499
-138.238
-123.43
-105.71
-88.482
-76.696
-72.48
-73.999
-79.286
-86.518
-93.505
-98.443
-100.436
-98.979
-94.184
-86.887
-77.921
-68.014
-58.099
-49.039
-41.277
-35.049
-30.349
-26.938
-24.65
-23.335
-22.773
-22.758
-23.121
-23.735
-24.5
-25.322
-26.067
-26.586
-26.768
-26.543
-25.884
-24.779
-23.231
-21.257
-18.891
-16.192
-13.216
-10.012
-6.631
-3.119
0.469
4.068
7.611
11.038
14.305
17.382
20.255
22.918
25.37
27.624
29.695
31.607
33.379
35.028
36.568
38.015
39.389
40.713
42.01
43.304
44.618
45.973
47.39
48.89
50.489
52.206
54.056
56.052
58.212
60.554
63.097
65.86
68.864
72.124
75.659
79.484
83.616
88.07
92.856
97.982
103.458
109.294
115.502
122.096
129.082
136.457
144.215
152.343
160.821
169.625
178.719
188.058
197.595
207.292
217.116
227.04
237.033
247.053
257.055
266.99
276.825
286.542
296.125
305.563
314.856
324.02
333.096
342.143
351.198
360.274
369.359
378.422
387.438
396.378
405.217
413.916
422.411
430.624
438.48
445.893
452.759
458.952
464.294
468.596
471.711
473.525
473.969
472.998
470.565
466.639
461.206
454.263
445.841
435.975
424.684
412.012
398.029
382.833
366.598
349.508
331.715
313.36
294.548
275.381
255.981
236.459
216.909
197.439
178.149
159.159
140.636
122.715
105.512
89.133
73.61
58.964
45.238
32.456
20.652
9.851
0.044
-8.775
-16.605
-23.474
-29.434
-34.564
-39.005
-42.873
-46.271
-49.307
-52.043
-54.536
-56.854
-59.041
-61.13
-63.157
-65.137
-67.084
-69.026
-70.965
-72.886
-74.757
-76.509
-78.09
-79.467
-80.6
-81.476
-82.086
-82.42
-82.489
-82.317
-81.924
-81.332
-80.569
-79.646
-78.587
-77.426
-76.198
-74.948
-73.717
-72.529
-71.41
-70.379
-69.448
-68.626
-67.915
-67.306
-66.793
-66.372
-66.038
-65.789
-65.623
-65.53
-65.505
-65.539
-65.624
-65.754
-65.924
-66.129
-66.362
-66.622
-66.904
-67.208
-67.532
-67.873
-68.226
-68.589
-68.957
-69.327
-69.696
-70.059
-70.415
-70.761
-71.095
-71.417
-71.726
-72.022
-72.304
-72.573
-72.829
-73.072
-73.303
-73.523
-73.733
-73.933
-74.124
-74.307
-74.482
-74.651
-74.812
-74.967
-75.116
-75.258
-75.394
-75.522
-75.643
-75.757
-75.864
-75.962
-76.052
-76.134
-76.207
-76.27
-76.324
-76.367
-76.4
-76.422
-76.433
-76.433
-76.421
-76.398
-76.364
-76.319
-76.263
-76.196
-76.119
-76.032
-75.934
-75.827
-75.71
-75.584
-75.45
-75.309
-75.162
-75.01
-74.854
-74.695
-74.536
-74.377
-74.22
-74.068
-73.92
-73.78
-73.649
-73.528
-73.42
-73.325
-73.245
-73.18
-73.132
-73.1
-73.086
-73.088
-73.107
-73.143
-73.195
-73.263
-73.347
-73.447
-73.562
-73.693
-73.839
-73.999
-74.173
-74.362
-74.563
-74.777
-75.003
-75.239
-75.485
-75.739
-76.001
-76.269
-76.54
-76.815
-77.09
-77.365
-77.638
-77.907
-78.17
-78.427
-78.676
-78.916
-79.148
-79.369
-79.581
-79.782
-79.972
-80.15
-80.316
-80.469
-80.609
-80.735
-80.846
-80.942
-81.02
-81.081
-81.123
-81.147
-81.15
-81.133
-81.096
-81.036
-80.956
-80.855
-80.732
-80.589
-80.427
-80.245
-80.046
-79.83
-79.599
-79.354
-79.097
-78.829
-78.551
-78.265
-77.973
-77.676
-77.376
-77.076
-76.777
-76.482
-76.193
-75.914
-75.647
-75.395
-75.161
-74.949
-74.761
-74.601
-74.473
-74.378
-74.32
-74.301
-74.324
-74.391
-74.502
-74.66
-74.865
-75.118
-75.417
-75.762
-76.151
-76.584
-77.057
-77.568
-78.114
-78.69
-79.293
-79.917
-80.559
-81.211
-81.868
-82.523
-83.169
-83.799
-84.404
-84.977
-85.51
-85.994
-86.42
-86.781
-87.067
-87.271
-87.385
-87.4
-87.309
-87.107
-86.785
-86.34
-85.765
-85.058
-84.214
-83.232
-82.111
-80.85
-79.45
-77.912
-76.239
-74.437
-72.509
-70.462
-68.303
-66.041
-63.684
-61.243
-58.729
-56.153
-53.527
-50.863
-48.175
-45.477
-42.782
-40.104
-37.458
-34.858
-32.318
-29.852
-27.474
-25.197
-23.035
-20.997
-19.097
-17.346
-15.752
-14.325
-13.073
-12.002
-11.119
-10.429
-9.934
-9.638
-9.54
-9.64
-9.938
-10.43
-11.112
-11.98
-13.029
-14.254
-15.652
-17.216
-18.941
-20.822
-22.851
-25.022
-27.326
-29.753
-32.289
-34.924
-37.644
-40.441
-43.304
-46.223
-49.188
-52.189
-55.214
-58.256
-61.299
-64.326
-67.321
-70.27
-73.164
-76.008
-78.804
-81.552
-84.256
-86.914
-89.519
-92.06
-94.517
-96.854
-99.037
-101.034
-102.819
-104.379
-105.698
-106.756
-107.524
-107.966
-108.042
-107.728
-106.999
-105.845
-104.293
-102.391
-100.217
-97.882
-95.482
-93.121
-90.912
-88.936
-87.288
-86.081
-85.406
-85.424
-86.352
-88.256
-91.127
-94.877
-99.091
-103.266
-106.947
-109.437
-109.979
-108.352
-104.553
-98.733
-92.214
-86.692
-83.27
-83.635
-88.258
-94.831
-102.829
-112.625
-124.305
-140.678
-157.809
-164.434
-149.25
-100.891
-20.513
79.505
187.018
291.551
394.342
500.76
606.839
702.275
767.011
780.514
737.624
641.55
503.113
342.71
176.128
21.036
-101.166
-182.674
-222.202
-227.634
-219.085
-207.946
-198.566
-191.356
-179.62
-162.127
-142.809
-124.931
-112.465
-106.518
-105.139
-106.368
-108.242
-108.913
-107.073
-102.139
-94.146
-83.614
-71.484
-58.648
-45.815
-33.744
-23.115
-14.279
-7.392
-2.443
0.766
2.419
2.678
1.768
-0.099
-2.718
-5.861
-9.291
-12.766
-16.08
-19.089
-21.701
-23.845
-25.457
-26.474
-26.837
-26.533
-25.572
-23.977
-21.78
-19.013
-15.739
-12.06
-8.112
-4.049
0.017
4.019
7.91
11.66
15.241
18.624
21.792
24.754
27.518
30.087
32.467
34.655
36.669
38.545
40.334
42.095
43.874
45.702
47.607
49.611
51.735
54
56.418
58.992
61.729
64.642
67.747
71.063
74.608
78.39
82.417
86.695
91.233
96.041
101.127
106.499
112.161
118.122
124.391
130.986
137.921
145.204
152.833
160.8
169.093
177.693
186.579
195.714
205.054
214.554
224.175
233.887
243.666
253.481
263.292
273.053
282.717
292.255
301.653
310.897
319.979
328.905
337.694
346.394
355.071
363.77
372.509
381.282
390.064
398.833
407.573
416.27
424.887
433.366
441.628
449.596
457.188
464.299
470.788
476.461
481.116
484.583
486.747
487.525
486.854
484.679
480.947
475.616
468.68
460.157
450.065
438.429
425.285
410.696
394.796
377.785
359.868
341.231
322.019
302.356
282.378
262.218
242.009
221.88
201.945
182.319
163.157
144.61
126.811
109.89
93.898
78.835
64.705
51.508
39.255
27.962
17.616
8.193
-0.323
-7.962
-14.761
-20.783
-26.146
-30.965
-35.343
-39.384
-43.148
-46.67
-49.995
-53.151
-56.159
-59.044
-61.813
-64.465
-67.016
-69.47
-71.819
-74.038
-76.068
-77.859
-79.378
-80.591
-81.488
-82.066
-82.323
-82.272
-81.941
-81.356
-80.546
-79.543
-78.366
-77.042
-75.605
-74.09
-72.545
-71.012
-69.52
-68.096
-66.76
-65.529
-64.415
-63.424
-62.551
-61.791
-61.144
-60.606
-60.177
-59.855
-59.635
-59.51
-59.475
-59.522
-59.646
-59.843
-60.107
-60.432
-60.812
-61.245
-61.727
-62.254
-62.821
-63.422
-64.052
-64.703
-65.371
-66.05
-66.732
-67.414
-68.09
-68.757
-69.411
-70.051
-70.673
-71.275
-71.858
-72.42
-72.96
-73.478
-73.973
-74.445
-74.894
-75.319
-75.719
-76.095
-76.445
-76.77
-77.07
-77.344
-77.593
-77.817
-78.017
-78.194
-78.348
-78.48
-78.591
-78.683
-78.756
-78.813
-78.854
-78.882
-78.898
-78.903
-78.898
-78.884
-78.862
-78.833
-78.797
-78.755
-78.708
-78.656
-78.6
-78.542
-78.484
-78.426
-78.371
-78.319
-78.273
-78.235
-78.205
-78.186
-78.178
-78.184
-78.205
-78.242
-78.295
-78.367
-78.457
-78.567
-78.695
-78.842
-79.007
-79.191
-79.392
-79.609
-79.841
-80.088
-80.349
-80.623
-80.909
-81.206
-81.513
-81.828
-82.15
-82.478
-82.809
-83.143
-83.477
-83.809
-84.139
-84.463
-84.78
-85.089
-85.388
-85.675
-85.948
-86.205
-86.447
-86.671
-86.877
-87.063
-87.231
-87.379
-87.508
-87.618
-87.71
-87.785
-87.843
-87.885
-87.912
-87.926
-87.927
-87.917
-87.896
-87.866
-87.827
-87.782
-87.731
-87.674
-87.614
-87.551
-87.487
-87.421
-87.356
-87.292
-87.23
-87.171
-87.117
-87.067
-87.023
-86.985
-86.954
-86.93
-86.914
-86.905
-86.904
-86.911
-86.925
-86.946
-86.974
-87.008
-87.048
-87.094
-87.144
-87.199
-87.259
-87.322
-87.389
-87.461
-87.536
-87.616
-87.702
-87.792
-87.889
-87.993
-88.103
-88.222
-88.349
-88.485
-88.63
-88.786
-88.952
-89.129
-89.316
-89.515
-89.725
-89.947
-90.178
-90.421
-90.672
-90.933
-91.202
-91.478
-91.759
-92.045
-92.334
-92.623
-92.911
-93.195
-93.471
-93.737
-93.989
-94.223
-94.434
-94.618
-94.771
-94.887
-94.962
-94.991
-94.967
-94.888
-94.747
-94.539
-94.259
-93.903
-93.467
-92.947
-92.339
-91.64
-90.847
-89.959
-88.975
-87.893
-86.713
-85.435
-84.061
-82.591
-81.028
-79.375
-77.635
-75.812
-73.912
-71.939
-69.901
-67.805
-65.658
-63.47
-61.249
-59.004
-56.747
-54.487
-52.235
-50.003
-47.8
-45.64
-43.534
-41.492
-39.527
-37.65
-35.87
-34.2
-32.648
-31.225
-29.938
-28.796
-27.806
-26.975
-26.31
-25.816
-25.496
-25.356
-25.402
-25.637
-26.067
-26.691
-27.513
-28.532
-29.749
-31.161
-32.761
-34.542
-36.495
-38.614
-40.891
-43.319
-45.889
-48.588
-51.407
-54.335
-57.36
-60.467
-63.638
-66.853
-70.1
-73.371
-76.664
-79.978
-83.305
-86.636
-89.96
-93.257
-96.505
-99.672
-102.716
-105.592
-108.266
-110.705
-112.887
-114.785
-116.365
-117.585
-118.406
-118.796
-118.733
-118.204
-117.213
-115.804
-114.038
-112.009
-109.822
-107.56
-105.318
-103.213
-101.358
-99.875
-98.895
-98.493
-98.775
-99.92
-101.955
-104.779
-108.143
-111.532
-114.483
-116.715
-117.804
-117.221
-114.855
-110.846
-105.723
-100.717
-96.685
-93.96
-93.21
-95.009
-99.059
-104.577
-109.85
-111.946
-108.674
-98.249
-77.986
-45.493
0.763
59.638
126.471
196.461
265.377
334.373
408.904
486.639
561.64
620.019
637.889
605.511
521.405
390.771
237.932
82.412
-58.846
-164.648
-230.838
-259.572
-257.872
-243.738
-226.563
-209.401
-192.628
-171.111
-145.1
-118.206
-93.417
-74.997
-64.559
-61.333
-64.318
-70.871
-77.708
-83.144
-86.319
-86.824
-84.734
-79.811
-71.992
-62.25
-52.217
-43.011
-35.179
-28.86
-23.899
-20.432
-18.617
-18.187
-18.581
-19.291
-19.983
-20.517
-20.893
-21.029
-20.8
-20.16
-19.129
-17.767
-16.127
-14.236
-12.087
-9.686
-7.062
-4.255
-1.313
1.712
4.771
7.813
10.788
13.662
16.411
19.016
21.47
23.77
25.926
27.951
29.865
31.683
33.416
35.08
36.693
38.277
39.856
41.452
43.084
44.771
46.531
48.382
50.341
52.42
54.631
56.983
59.485
62.149
64.989
68.018
71.248
74.692
78.362
82.27
86.431
90.853
95.548
100.522
105.785
111.347
117.223
123.429
129.979
136.878
144.127
151.72
159.644
167.881
176.402
185.167
194.136
203.273
212.546
221.934
231.413
240.953
250.518
260.064
269.552
278.955
288.256
297.446
306.533
315.533
324.494
333.492
342.598
351.868
361.332
370.982
380.808
390.796
400.929
411.193
421.559
431.983
442.411
452.779
462.99
472.921
482.392
491.164
499.006
505.698
511.066
514.992
517.361
518.073
517.04
514.192
509.467
502.818
494.193
483.546
470.885
456.273
439.856
421.852
402.497
382.038
360.691
338.645
316.099
293.25
270.282
247.378
224.728
202.537
181.049
160.515
141.126
123.024
106.272
90.877
76.824
64.071
52.575
42.286
33.139
25.065
18.004
11.878
6.589
2.005
-2.059
-5.795
-9.347
-12.832
-16.32
-19.855
-23.469
-27.172
-30.953
-34.793
-38.665
-42.547
-46.428
-50.284
-54.073
-57.732
-61.166
-64.289
-67.046
-69.395
-71.319
-72.81
-73.865
-74.501
-74.752
-74.661
-74.265
-73.598
-72.685
-71.558
-70.26
-68.839
-67.351
-65.843
-64.348
-62.896
-61.508
-60.203
-58.995
-57.887
-56.876
-55.958
-55.13
-54.393
-53.751
-53.203
-52.745
-52.374
-52.083
-51.87
-51.732
-51.667
-51.67
-51.739
-51.87
-52.063
-52.316
-52.627
-52.992
-53.404
-53.858
-54.347
-54.867
-55.411
-55.972
-56.546
-57.128
-57.713
-58.299
-58.884
-59.463
-60.035
-60.599
-61.151
-61.692
-62.22
-62.734
-63.232
-63.715
-64.18
-64.628
-65.058
-65.468
-65.857
-66.227
-66.576
-66.904
-67.213
-67.501
-67.771
-68.024
-68.262
-68.485
-68.697
-68.899
-69.093
-69.282
-69.465
-69.646
-69.824
-70
-70.176
-70.35
-70.523
-70.694
-70.865
-71.034
-71.202
-71.368
-71.532
-71.694
-71.853
-72.01
-72.165
-72.317
-72.466
-72.613
-72.757
-72.899
-73.037
-73.173
-73.305
-73.432
-73.553
-73.668
-73.776
-73.875
-73.965
-74.044
-74.113
-74.171
-74.219
-74.255
-74.282
-74.298
-74.305
-74.303
-74.292
-74.274
-74.248
-74.216
-74.179
-74.137
-74.092
-74.045
-73.997
-73.948
-73.9
-73.854
-73.81
-73.77
-73.735
-73.706
-73.684
-73.671
-73.667
-73.675
-73.696
-73.73
-73.778
-73.842
-73.921
-74.015
-74.124
-74.247
-74.384
-74.534
-74.697
-74.87
-75.054
-75.248
-75.449
-75.657
-75.87
-76.087
-76.306
-76.525
-76.743
-76.958
-77.167
-77.37
-77.565
-77.75
-77.924
-78.084
-78.23
-78.359
-78.47
-78.561
-78.632
-78.682
-78.711
-78.718
-78.704
-78.671
-78.62
-78.552
-78.47
-78.375
-78.271
-78.16
-78.043
-77.925
-77.808
-77.695
-77.588
-77.492
-77.41
-77.344
-77.298
-77.274
-77.277
-77.308
-77.37
-77.465
-77.596
-77.764
-77.971
-78.218
-78.507
-78.838
-79.212
-79.627
-80.083
-80.578
-81.108
-81.67
-82.26
-82.874
-83.505
-84.149
-84.798
-85.447
-86.088
-86.715
-87.32
-87.895
-88.433
-88.925
-89.365
-89.743
-90.053
-90.286
-90.436
-90.496
-90.46
-90.321
-90.075
-89.715
-89.238
-88.639
-87.916
-87.067
-86.089
-84.982
-83.747
-82.386
-80.902
-79.298
-77.579
-75.75
-73.82
-71.795
-69.684
-67.497
-65.244
-62.936
-60.583
-58.199
-55.796
-53.386
-50.983
-48.599
-46.248
-43.944
-41.699
-39.527
-37.44
-35.451
-33.573
-31.817
-30.195
-28.717
-27.394
-26.235
-25.248
-24.441
-23.82
-23.392
-23.161
-23.135
-23.318
-23.715
-24.327
-25.157
-26.205
-27.472
-28.952
-30.638
-32.522
-34.596
-36.852
-39.284
-41.882
-44.636
-47.533
-50.562
-53.71
-56.966
-60.309
-63.719
-67.176
-70.667
-74.186
-77.733
-81.306
-84.895
-88.491
-92.082
-95.648
-99.173
-102.627
-105.965
-109.149
-112.143
-114.92
-117.464
-119.742
-121.716
-123.338
-124.557
-125.336
-125.649
-125.479
-124.836
-123.748
-122.258
-120.434
-118.354
-116.098
-113.783
-111.517
-109.407
-107.59
-106.163
-105.273
-105.161
-105.896
-107.4
-109.466
-111.615
-113.428
-114.723
-115.104
-114.017
-111.389
-107.388
-102.691
-98.742
-96.469
-96.156
-98.367
-103.597
-111.546
-121.452
-131.294
-137.666
-138.154
-130.864
-113.386
-83.583
-39.658
17.92
84.994
156.615
228.753
302.144
381.613
465.815
548.222
613.501
639.725
618.634
550.524
445.582
324.52
196.658
70.726
-43.118
-141.279
-212.692
-252.9
-269.07
-265.968
-252.515
-234.026
-207.309
-173.366
-134.75
-94.768
-59.899
-33.875
-17.782
-11.861
-14.81
-24.326
-37.875
-52.943
-67.104
-78.713
-86.699
-90.345
-89.561
-84.971
-77.681
-68.998
-60.305
-52.481
-46.04
-41.338
-38.405
-37.094
-37.095
-37.897
-38.898
-39.704
-40.116
-40.04
-39.512
-38.552
-37.157
-35.39
-33.343
-31.085
-28.653
-26.054
-23.268
-20.297
-17.182
-13.975
-10.74
-7.536
-4.396
-1.34
1.612
4.446
7.153
9.726
12.176
14.515
16.752
18.891
20.936
22.894
24.779
26.616
28.425
30.23
32.048
33.897
35.795
37.761
39.812
41.964
44.231
46.624
49.16
51.855
54.723
57.78
61.039
64.516
68.225
72.184
76.405
80.901
85.684
90.765
96.157
101.868
107.905
114.273
120.978
128.031
135.443
143.22
151.353
159.832
168.643
177.761
187.163
196.81
206.65
216.638
226.729
236.888
247.091
257.301
267.477
277.571
287.531
297.317
306.914
316.306
325.478
334.438
343.203
351.821
360.367
368.889
377.406
385.924
394.421
402.887
411.318
419.705
428.036
436.28
444.382
452.281
459.908
467.143
473.84
479.811
484.821
488.692
491.292
492.501
492.234
490.403
486.92
481.716
474.736
465.927
455.255
442.714
428.33
412.209
394.509
375.438
355.256
334.186
312.423
290.172
267.623
244.963
222.394
200.111
178.307
157.218
137.076
118.071
100.354
84
69.033
55.446
43.188
32.212
22.468
13.885
6.396
-0.066
-5.584
-10.261
-14.216
-17.629
-20.683
-23.52
-26.257
-28.965
-31.688
-34.463
-37.302
-40.201
-43.145
-46.114
-49.091
-52.071
-55.038
-57.956
-60.774
-63.405
-65.769
-67.817
-69.512
-70.84
-71.798
-72.382
-72.609
-72.51
-72.123
-71.485
-70.625
-69.564
-68.328
-66.953
-65.482
-63.969
-62.454
-60.97
-59.541
-58.186
-56.921
-55.758
-54.7
-53.741
-52.874
-52.095
-51.403
-50.8
-50.285
-49.85
-49.492
-49.202
-48.977
-48.813
-48.707
-48.653
-48.648
-48.689
-48.774
-48.905
-49.079
-49.293
-49.543
-49.826
-50.136
-50.471
-50.826
-51.197
-51.58
-51.971
-52.368
-52.768
-53.17
-53.57
-53.968
-54.36
-54.746
-55.125
-55.495
-55.855
-56.205
-56.543
-56.869
-57.181
-57.478
-57.76
-58.024
-58.271
-58.499
-58.708
-58.896
-59.064
-59.211
-59.336
-59.441
-59.524
-59.585
-59.625
-59.643
-59.64
-59.616
-59.57
-59.502
-59.413
-59.302
-59.17
-59.016
-58.84
-58.643
-58.424
-58.184
-57.924
-57.644
-57.345
-57.029
-56.695
-56.347
-55.985
-55.61
-55.226
-54.833
-54.432
-54.027
-53.618
-53.208
-52.797
-52.387
-51.98
-51.577
-51.181
-50.792
-50.413
-50.044
-49.689
-49.349
-49.025
-48.719
-48.433
-48.168
-47.925
-47.707
-47.514
-47.348
-47.209
-47.098
-47.015
-46.961
-46.935
-46.938
-46.967
-47.023
-47.104
-47.209
-47.336
-47.484
-47.651
-47.836
-48.036
-48.25
-48.476
-48.711
-48.954
-49.201
-49.45
-49.7
-49.946
-50.186
-50.419
-50.64
-50.848
-51.041
-51.214
-51.367
-51.495
-51.598
-51.673
-51.719
-51.733
-51.715
-51.665
-51.582
-51.465
-51.317
-51.136
-50.926
-50.686
-50.418
-50.124
-49.806
-49.466
-49.107
-48.731
-48.341
-47.941
-47.532
-47.119
-46.703
-46.289
-45.879
-45.475
-45.081
-44.699
-44.332
-43.983
-43.653
-43.345
-43.062
-42.805
-42.575
-42.374
-42.203
-42.061
-41.948
-41.865
-41.811
-41.784
-41.783
-41.808
-41.856
-41.926
-42.015
-42.121
-42.241
-42.373
-42.514
-42.66
-42.81
-42.961
-43.11
-43.256
-43.397
-43.532
-43.659
-43.778
-43.886
-43.985
-44.073
-44.15
-44.216
-44.272
-44.318
-44.355
-44.385
-44.408
-44.427
-44.443
-44.457
-44.471
-44.486
-44.504
-44.526
-44.553
-44.586
-44.626
-44.675
-44.734
-44.802
-44.881
-44.97
-45.069
-45.176
-45.289
-45.406
-45.524
-45.639
-45.748
-45.847
-45.931
-45.995
-46.034
-46.042
-46.013
-45.941
-45.818
-45.639
-45.395
-45.082
-44.691
-44.219
-43.659
-43.007
-42.26
-41.413
-40.463
-39.408
-38.246
-36.975
-35.595
-34.105
-32.506
-30.799
-28.987
-27.075
-25.069
-22.972
-20.788
-18.524
-16.185
-13.782
-11.329
-8.828
-6.284
-3.721
-1.161
1.376
3.863
6.299
8.694
11.016
13.231
15.373
17.463
19.516
21.564
23.559
25.423
27.184
28.904
30.391
31.421
32.113
32.446
32.373
32.351
31.123
27.464
23.113
18.598
17.122
22.519
30.556
38.411
41.883
35.198
23.477
11.065
0.942
-1.971
-1.17
-0.19
0.203
-2.137
-5.934
-9.558
-13.318
-17.003
-20.713
-24.764
-28.925
-33.004
-37.04
-41.013
-44.86
-48.543
-52.031
-55.298
-58.355
-61.209
-63.808
-66.09
-67.995
-69.47
-70.48
-71.001
-71.032
-70.586
-69.694
-68.414
